Time,Registration,Payment,Get Triage Number,Measure Vital Signs,General Medicine Examination,Eye Examination,ENT Examination,Dental Examination,Gynecological Examination,Breast Examination,Blood Test,Urine Test,In-depth Eye Examination,ENT Endoscopy,Electrocardiogram (ECG),Post-bronchodilator Spirometry,General Ultrasound,Cardiac Ultrasound,Chest X-ray,DEXA Bone Density Scan,Conclusion
0.0,0,0,0,0,0,0,0,0,0,0,0,0,0,0,0,0,0,0,0,0,0
1.0,3,0,0,0,0,0,0,0,0,0,0,0,0,0,0,0,0,0,0,0,0
2.0,2,1,0,0,0,0,0,0,0,0,0,0,0,0,0,0,0,0,0,0,0
3.0,0,3,0,0,0,0,0,0,0,0,0,0,0,0,0,0,0,0,0,0,0
4.0,1,2,1,0,0,0,0,0,0,0,0,0,0,0,0,0,0,0,0,0,0
5.0,1,1,1,1,0,0,0,0,0,0,0,0,0,0,0,0,0,0,0,0,0
6.0,1,1,1,2,0,0,0,0,0,0,0,0,0,0,0,0,0,0,0,0,0
7.0,1,0,2,1,1,0,0,0,0,0,0,0,0,0,0,0,0,0,0,0,0
8.0,0,1,1,1,2,0,0,0,0,0,0,0,0,0,0,0,0,0,0,0,0
9.0,1,1,0,2,2,0,0,0,0,0,0,0,0,0,0,0,0,0,0,0,0
10.0,1,0,1,1,2,0,1,0,0,0,0,0,0,0,0,0,0,0,0,0,0
11.0,0,1,0,1,2,0,2,0,0,0,0,0,0,0,0,0,0,0,0,0,0
12.0,0,1,0,1,2,0,2,0,0,0,0,0,0,0,0,0,0,0,0,0,0
13.0,0,0,1,0,1,1,3,0,0,0,0,0,0,0,0,0,0,0,0,0,0
14.0,0,0,0,1,1,1,3,0,0,0,0,0,0,0,0,0,0,0,0,0,0
15.0,0,0,0,1,1,2,2,0,0,0,0,0,0,0,0,0,0,0,0,0,0
16.0,0,0,0,0,1,2,2,1,0,0,0,0,0,0,0,0,0,0,0,0,0
17.0,1,0,0,0,1,3,1,1,0,0,0,0,0,0,0,0,0,0,0,0,0
18.0,2,0,0,0,0,2,2,2,0,0,0,0,0,0,0,0,0,0,0,0,0
19.0,2,1,0,0,0,2,1,2,0,0,0,0,0,0,1,0,0,0,0,0,0
20.0,1,2,0,0,0,2,1,2,0,0,0,0,0,0,1,0,0,0,0,0,0
21.0,2,3,0,0,0,2,0,2,0,0,0,0,0,0,2,0,0,0,0,0,0
22.0,1,3,1,0,0,1,0,2,0,0,0,0,0,0,3,0,0,0,0,0,0
23.0,2,3,1,1,0,1,0,2,0,0,0,0,0,0,3,0,0,0,0,0,0
24.0,1,3,0,3,0,1,0,1,0,0,0,1,0,0,3,0,0,0,0,0,0
25.0,0,3,1,2,1,0,0,2,0,0,0,1,0,0,3,0,0,0,0,0,0
26.0,2,2,1,2,2,0,0,1,0,1,0,2,0,0,2,0,0,0,0,0,0
27.0,2,1,1,2,3,0,0,1,0,1,0,3,0,0,1,0,0,0,0,0,0
28.0,2,2,1,2,2,0,2,0,0,1,0,3,0,0,2,0,0,0,0,0,0
29.0,3,2,0,2,3,0,2,0,0,1,0,3,0,0,1,0,0,0,1,0,0
30.0,1,2,2,1,3,0,3,0,0,1,0,3,0,0,1,0,0,0,1,0,0
31.0,0,3,1,1,2,2,3,0,0,0,0,2,0,0,2,0,0,0,2,0,0
32.0,2,3,0,2,2,2,3,0,0,0,0,3,1,0,1,0,0,0,1,0,0
33.0,2,1,2,1,2,2,4,0,0,0,0,3,1,0,1,0,0,0,1,0,0
34.0,1,3,1,1,2,2,3,2,0,0,0,2,1,1,1,0,0,0,0,1,0
35.0,1,2,1,1,3,2,3,2,0,0,0,3,1,1,0,0,0,0,0,1,0
36.0,1,1,1,1,3,3,3,2,0,0,0,2,1,2,0,0,0,0,0,1,0
37.0,0,1,1,2,2,3,3,2,0,0,0,2,0,2,1,0,0,0,0,2,0
38.0,1,1,0,2,3,2,3,2,0,1,0,2,1,1,1,0,0,0,0,2,0
39.0,1,0,1,1,2,3,4,2,0,1,0,1,2,2,1,0,0,0,0,1,0
40.0,1,1,0,1,3,3,3,2,0,1,0,1,2,2,2,0,0,0,0,1,0
41.0,1,1,0,1,2,2,4,2,0,2,0,0,3,2,2,0,0,0,0,1,0
42.0,0,1,1,0,2,2,5,2,1,1,0,0,3,3,1,0,0,0,0,1,0
43.0,0,1,0,1,1,4,4,1,1,2,0,0,3,2,1,0,0,0,0,2,0
44.0,2,0,0,2,1,2,4,2,1,3,0,0,3,3,0,0,1,0,0,1,0
45.0,2,0,0,1,1,3,4,2,2,2,0,0,3,3,0,0,1,0,0,1,0
46.0,1,2,0,1,1,4,3,2,2,2,0,0,3,3,0,0,1,0,0,1,0
47.0,2,2,0,0,2,2,3,2,2,2,0,0,3,5,0,0,1,0,0,1,0
48.0,1,1,2,0,1,2,4,2,2,1,0,0,4,4,1,0,1,0,0,1,0
49.0,0,2,1,1,0,4,3,2,2,1,0,0,3,4,1,0,2,0,1,0,0
50.0,1,2,0,2,0,2,3,2,3,0,0,0,3,4,3,0,2,0,1,0,0
51.0,1,0,2,1,1,2,3,2,2,0,0,0,3,4,4,0,2,0,1,0,0
52.0,1,0,1,1,2,3,1,3,2,0,1,0,3,4,4,0,2,0,0,0,0
53.0,0,1,0,1,2,2,2,2,1,0,1,0,4,3,6,0,2,0,1,0,0
54.0,0,1,0,1,1,2,3,2,1,0,1,0,3,3,6,0,2,0,1,1,0
55.0,1,0,0,1,2,2,2,3,1,0,1,0,3,4,5,0,2,0,0,2,0
56.0,1,0,0,1,2,2,1,2,1,1,1,0,3,5,5,0,2,0,0,2,0
57.0,0,1,0,1,1,3,1,2,1,1,1,0,3,5,5,0,1,0,1,2,0
58.0,2,1,0,0,1,3,2,2,1,1,1,0,4,5,4,0,1,0,1,2,0
59.0,2,0,1,0,1,1,2,2,0,1,1,0,3,5,7,0,1,0,3,1,0
60.0,1,2,0,1,0,3,1,2,0,1,1,0,3,6,6,0,1,0,2,2,0
61.0,1,1,1,1,0,2,1,3,0,0,1,0,3,8,6,0,0,0,2,2,0
62.0,2,1,1,1,1,2,1,1,0,1,1,0,3,8,7,0,0,0,1,3,0
63.0,2,1,0,2,1,1,1,2,0,1,1,0,3,7,7,0,1,0,1,3,0
64.0,1,2,1,1,2,1,0,3,0,1,1,0,3,7,7,0,1,0,1,3,0
65.0,2,1,1,1,2,1,1,2,0,2,1,1,3,7,7,0,1,0,1,2,0
66.0,1,1,1,2,2,1,1,1,0,2,0,3,3,7,6,0,1,1,0,3,0
67.0,0,2,0,2,2,0,2,2,0,1,0,3,3,7,7,0,1,1,0,3,0
68.0,0,1,1,1,2,1,2,1,0,2,0,5,2,6,7,0,1,1,0,3,0
69.0,1,0,1,1,3,1,2,1,0,2,0,6,2,6,7,0,1,1,0,2,0
70.0,1,0,0,2,3,2,1,0,0,3,0,5,3,6,7,0,1,1,0,2,0
71.0,1,1,0,1,2,2,2,1,1,2,1,6,4,6,5,0,0,1,0,2,0
72.0,1,1,0,0,2,2,3,1,1,2,1,5,4,7,5,0,0,1,0,2,0
73.0,2,1,1,0,2,1,3,2,1,2,1,5,3,6,5,0,0,1,2,2,0
74.0,2,1,0,1,1,3,2,1,1,2,1,4,3,7,5,1,2,0,2,1,0
75.0,0,2,1,1,1,2,2,1,1,2,1,4,3,7,6,1,2,0,2,1,0
76.0,1,2,0,1,1,2,3,1,2,1,0,4,4,8,4,1,3,1,1,1,0
77.0,1,0,2,0,2,2,1,3,2,1,0,3,5,8,4,1,3,1,1,1,0
78.0,0,1,1,1,2,2,1,2,2,1,0,3,6,7,4,1,3,1,2,1,0
79.0,1,1,0,2,1,2,2,1,2,1,0,3,5,7,5,0,5,1,1,1,1
80.0,1,1,1,1,1,1,2,3,2,1,0,2,5,7,5,0,5,1,2,1,1
81.0,1,1,0,1,2,1,2,2,2,2,0,2,5,7,5,0,5,1,1,2,1
82.0,0,1,1,1,2,2,1,2,2,2,1,1,7,6,3,0,4,2,1,3,0
83.0,1,1,0,1,2,1,2,2,2,3,1,2,6,7,3,1,3,1,2,2,0
84.0,2,0,1,1,1,2,2,1,1,4,1,2,6,8,3,1,3,1,2,2,0
85.0,2,2,0,1,2,1,2,2,1,3,1,3,6,8,4,1,3,1,1,2,0
86.0,2,2,0,1,1,2,2,1,2,3,1,4,6,8,4,1,2,1,1,2,0
87.0,0,3,1,0,2,2,1,2,2,3,0,4,7,9,3,1,3,1,0,2,0
88.0,1,2,1,1,1,2,2,1,1,4,0,5,7,9,3,0,3,1,1,1,1
89.0,1,1,1,2,1,2,1,2,1,4,1,5,8,9,2,0,2,1,1,1,1
90.0,1,0,1,2,1,1,2,2,1,5,2,4,8,9,2,1,2,0,1,1,1
91.0,0,1,0,2,2,2,1,2,2,3,2,4,8,9,3,1,2,0,0,2,0
92.0,3,0,1,0,3,2,1,2,2,4,2,5,8,9,2,1,2,0,0,2,0
93.0,3,0,1,0,3,2,1,1,1,5,2,5,10,9,2,1,2,0,0,1,0
94.0,0,3,0,1,2,1,2,2,1,5,2,5,9,9,2,1,2,1,0,1,0
95.0,0,2,1,0,1,1,3,2,1,4,2,5,9,11,3,1,1,1,0,1,0
96.0,1,1,1,1,1,1,3,2,2,3,2,6,9,11,2,0,1,1,0,1,1
97.0,2,1,0,2,1,2,2,1,2,3,2,7,9,11,2,0,1,1,0,1,1
98.0,1,1,1,1,1,1,3,2,2,3,2,7,11,10,1,0,1,1,1,0,1
99.0,0,2,0,1,2,2,2,1,1,4,2,7,10,10,2,0,1,1,2,0,0
100.0,0,1,1,1,2,2,1,2,2,3,2,7,11,10,1,0,1,1,1,1,0
101.0,0,0,1,1,2,2,2,1,3,2,3,8,11,10,1,0,0,1,1,1,0
102.0,0,0,0,2,1,2,2,2,3,2,3,8,11,9,1,1,0,1,1,1,0
103.0,1,0,0,1,1,1,3,2,2,2,2,8,11,10,2,1,0,1,1,2,0
104.0,3,0,0,0,2,2,2,2,2,2,4,7,10,11,1,1,0,1,1,2,0
105.0,3,1,0,0,2,2,1,2,2,1,3,6,11,13,3,1,0,1,1,1,0
106.0,2,3,0,0,1,2,2,1,2,1,2,6,11,13,4,1,0,1,1,2,0
107.0,1,4,0,0,0,3,2,1,2,1,2,6,11,13,4,0,0,1,1,2,1
108.0,0,3,1,1,0,1,2,2,2,2,2,6,12,13,3,0,0,1,1,2,1
109.0,0,3,0,2,0,2,1,2,1,2,1,6,11,14,4,0,1,1,1,2,1
110.0,0,1,2,2,0,3,0,2,1,1,1,6,13,14,4,1,2,0,0,1,0
111.0,0,1,1,2,1,2,0,1,1,2,1,6,13,14,5,1,2,0,0,1,0
112.0,1,0,1,2,2,1,0,2,1,2,1,6,13,13,5,1,3,0,0,1,0
113.0,1,0,0,2,2,1,1,2,2,1,1,6,13,14,4,1,3,0,0,1,0
114.0,2,1,0,1,3,0,1,2,2,1,0,8,13,14,3,1,4,0,0,1,0
115.0,2,1,0,0,3,0,2,1,2,1,0,8,14,15,2,0,4,0,0,1,1
116.0,0,2,1,0,2,1,2,1,3,0,0,8,14,14,2,0,4,2,0,0,1
117.0,0,2,0,1,1,1,3,0,3,1,0,8,14,15,2,0,3,2,0,0,1
118.0,1,0,2,1,0,2,3,0,2,1,0,8,14,16,3,0,2,2,0,0,0
119.0,1,0,1,1,1,2,2,1,2,1,0,8,14,16,3,0,1,2,1,0,0
120.0,0,1,0,2,1,2,2,1,2,1,0,8,14,17,2,0,1,2,1,0,0
121.0,0,1,0,1,2,2,1,2,1,1,0,7,16,16,3,0,1,2,0,1,0
122.0,0,1,0,0,3,2,0,2,2,0,0,8,16,16,3,0,0,3,0,1,0
123.0,2,0,1,0,2,2,1,2,2,0,0,7,17,17,2,1,0,2,0,1,0
124.0,2,0,0,1,1,1,2,2,2,1,1,7,16,18,1,1,0,2,0,1,0
125.0,0,2,0,0,1,0,3,2,2,2,1,6,17,18,1,2,0,1,0,1,0
126.0,0,1,1,0,1,1,2,2,1,2,1,6,17,18,1,2,0,3,0,0,0
127.0,1,0,2,0,1,1,2,1,1,3,1,6,17,18,1,2,0,3,0,0,0
128.0,3,0,1,1,0,2,2,0,1,3,2,6,17,18,1,1,0,3,0,0,1
129.0,2,1,0,2,0,2,1,1,1,2,1,6,17,18,2,1,0,4,0,0,1
130.0,2,2,0,0,2,1,1,2,0,2,1,6,17,18,3,1,0,4,0,0,1
131.0,1,2,1,0,2,2,0,2,0,1,2,5,17,19,3,1,0,4,0,0,0
132.0,1,2,1,1,1,1,1,2,0,2,2,5,17,18,3,2,0,4,0,0,0
133.0,1,1,1,2,1,1,1,1,0,1,2,4,16,19,6,2,0,4,0,0,0
134.0,0,1,1,2,1,0,2,2,0,1,2,4,16,19,6,2,0,3,0,0,1
135.0,0,0,2,1,2,1,1,1,0,1,1,5,16,20,6,2,0,3,0,0,1
136.0,0,0,1,2,2,2,0,1,0,0,1,6,16,20,6,2,0,3,0,0,1
137.0,0,0,0,1,3,2,1,0,0,0,1,7,16,19,7,2,0,3,0,0,0
138.0,0,0,0,0,3,1,2,1,0,0,1,7,15,19,7,2,0,3,1,0,0
139.0,0,0,0,0,2,0,3,2,0,0,1,7,15,19,7,1,0,3,1,0,1
140.0,0,0,0,0,2,1,2,2,0,0,1,7,15,20,6,1,0,2,1,1,1
141.0,0,0,0,0,1,2,2,1,0,0,1,7,15,21,6,1,0,2,0,2,1
142.0,0,0,0,0,0,2,3,0,0,0,1,7,15,20,7,1,0,1,1,3,0
143.0,2,0,0,0,0,1,3,1,0,0,2,6,14,20,8,1,0,1,1,3,0
144.0,2,0,0,0,0,2,1,2,0,0,1,6,14,20,8,1,0,1,1,4,0
145.0,1,1,0,0,0,2,1,2,0,0,1,6,14,22,6,0,0,1,0,5,1
146.0,0,2,0,0,0,3,0,2,0,0,1,5,15,23,5,0,0,1,1,4,1
147.0,0,1,1,0,0,1,0,2,0,2,2,6,14,22,5,0,0,1,1,4,1
148.0,0,0,1,1,0,1,0,2,0,2,1,5,15,22,5,0,1,1,1,4,0
149.0,1,0,0,2,0,1,0,2,0,2,1,5,15,22,5,2,1,0,0,4,0
150.0,1,0,0,1,1,0,0,1,0,4,1,5,16,22,4,2,2,0,0,3,0
151.0,0,1,0,0,2,0,0,1,0,4,1,6,16,23,2,2,2,0,0,3,0
152.0,0,1,0,0,1,0,1,1,2,2,0,6,17,22,2,2,2,1,0,3,0
153.0,0,0,1,0,1,0,1,0,2,3,0,7,16,22,2,2,2,1,0,3,0
154.0,1,0,0,1,0,0,2,0,2,3,0,7,16,22,2,1,2,1,0,3,1
155.0,1,0,0,1,0,1,1,0,2,3,1,7,16,22,1,1,2,2,0,2,1
156.0,2,1,0,0,1,1,1,0,3,2,1,7,16,23,0,1,1,3,0,2,1
157.0,2,1,0,0,1,2,0,0,4,1,1,7,16,23,0,1,0,4,0,2,0
158.0,0,3,0,0,1,2,0,0,4,1,2,7,15,23,0,1,0,4,0,2,0
159.0,2,1,2,0,0,0,1,2,3,1,2,7,15,23,1,0,0,4,0,2,1
160.0,2,1,1,1,0,0,1,2,2,1,1,6,16,23,2,0,2,4,0,1,1
161.0,2,2,1,2,0,0,1,2,2,0,1,6,16,23,3,0,2,4,0,1,1
162.0,2,2,0,1,2,1,0,1,2,1,1,5,17,22,3,0,2,5,0,1,0
163.0,0,2,2,1,2,1,0,0,2,1,0,5,18,22,3,0,2,5,0,2,0
164.0,0,2,1,1,3,1,0,0,2,1,0,6,18,22,2,0,3,4,0,2,0
165.0,0,0,2,2,2,0,1,1,2,1,0,6,18,22,2,0,3,5,0,1,0
166.0,0,0,1,2,2,0,2,1,2,1,0,6,19,22,1,0,3,5,0,1,0
167.0,2,0,0,2,2,0,3,1,2,0,0,6,19,22,2,1,3,4,0,1,0
168.0,1,1,0,1,2,2,2,0,0,0,0,5,21,23,4,2,1,4,0,1,0
169.0,1,1,0,0,3,2,2,0,0,0,1,5,20,23,4,2,1,4,0,1,0
170.0,2,1,1,0,2,2,3,0,0,0,1,5,20,23,4,2,1,5,0,0,0
171.0,2,0,1,1,1,3,2,1,0,0,2,4,20,23,4,2,1,5,0,0,0
172.0,0,2,0,2,0,2,3,2,0,0,2,5,21,23,2,2,0,5,1,0,0
173.0,0,2,0,1,1,2,3,2,0,0,2,5,21,24,1,2,0,4,1,0,1
174.0,0,0,2,0,2,2,1,4,0,0,2,5,20,24,1,2,0,4,2,0,1
175.0,0,0,1,1,2,2,1,2,0,1,2,5,20,24,2,3,0,4,1,0,1
176.0,0,0,0,2,1,3,1,2,0,1,1,4,21,25,2,3,0,3,1,1,0
177.0,0,0,0,1,2,2,1,3,0,1,2,4,21,24,1,3,0,3,0,2,1
178.0,1,0,0,0,2,1,2,2,0,2,2,4,21,24,2,3,0,3,0,2,1
179.0,3,0,0,0,1,2,2,2,0,2,1,5,20,25,1,3,0,3,0,3,1
180.0,2,1,0,0,1,2,1,3,1,1,1,5,20,25,1,3,0,3,0,3,0
181.0,1,2,0,0,0,2,2,1,1,3,1,4,21,25,1,3,0,3,1,2,0
182.0,0,2,1,0,0,1,2,2,1,3,0,3,23,25,1,3,0,2,1,2,1
183.0,0,1,1,1,0,1,1,3,2,2,1,3,22,26,0,3,0,2,1,2,1
184.0,0,0,1,2,0,2,0,2,2,3,1,3,22,26,0,3,1,2,0,2,1
185.0,1,0,0,2,1,2,0,1,2,3,1,3,22,26,1,3,2,1,0,2,0
186.0,1,0,0,1,2,1,0,2,2,3,1,2,23,26,1,3,2,2,0,1,0
187.0,1,1,0,0,3,0,0,2,2,2,1,1,23,26,3,2,2,2,0,2,1
188.0,2,1,0,0,1,0,2,2,3,1,0,1,23,26,3,2,2,3,0,2,1
189.0,1,1,0,1,1,0,2,1,2,1,0,3,22,26,4,2,2,3,0,2,1
190.0,1,1,0,1,0,0,3,0,2,1,0,4,22,26,4,2,2,3,0,2,0
191.0,1,1,1,0,1,1,2,0,1,1,1,3,22,26,5,1,3,2,1,1,1
192.0,1,1,0,1,1,2,1,0,1,0,1,4,22,26,6,1,2,2,1,1,1
193.0,0,1,1,1,1,2,1,0,1,0,1,5,22,26,5,1,2,2,1,1,1
194.0,0,1,0,2,0,3,1,0,1,0,2,4,22,26,5,2,2,2,0,1,0
195.0,0,0,1,1,1,1,1,2,1,0,2,3,22,26,5,2,2,2,0,2,0
196.0,1,0,0,1,2,1,1,2,1,0,2,3,22,26,5,2,2,3,0,1,0
197.0,1,0,0,0,3,1,0,2,1,0,2,4,22,25,6,1,3,2,0,1,1
198.0,0,1,0,0,2,1,1,1,0,1,2,5,22,25,6,2,2,2,0,1,1
199.0,0,1,0,0,1,1,2,1,0,1,2,4,21,26,6,2,2,2,0,2,1
200.0,1,0,1,0,0,0,3,1,0,1,1,3,22,28,6,2,2,2,0,2,0
201.0,2,0,0,1,0,1,2,1,0,1,1,3,22,28,6,2,2,3,0,1,0
202.0,2,1,0,1,0,2,1,1,0,0,1,3,24,27,6,1,3,2,0,1,1
203.0,1,2,0,0,1,2,1,0,0,0,1,4,24,27,6,2,2,2,0,1,1
204.0,1,2,1,0,1,2,0,1,0,0,1,3,23,28,6,2,2,3,0,1,1
205.0,0,2,1,1,1,1,0,2,0,0,1,3,24,28,5,3,1,3,0,1,0
206.0,0,1,1,2,0,1,1,2,0,0,1,4,24,28,4,4,1,2,0,1,0
207.0,0,0,1,2,1,0,1,1,0,1,1,4,25,27,5,3,1,3,0,0,1
208.0,0,0,0,2,2,0,1,1,0,1,1,4,25,28,4,3,1,3,0,0,1
209.0,0,0,0,1,3,1,0,1,0,1,0,5,24,29,3,3,2,3,0,0,1
210.0,1,0,0,0,3,1,1,0,0,1,0,5,24,29,4,3,2,3,0,0,0
211.0,1,0,0,0,2,1,2,0,0,1,0,5,26,28,3,4,1,3,0,0,0
212.0,1,1,0,0,1,0,3,1,0,0,0,6,26,28,3,3,1,3,0,0,1
213.0,3,1,0,0,0,1,3,1,0,0,0,6,26,28,3,3,1,3,0,0,1
214.0,2,2,0,0,0,2,2,1,0,0,1,6,26,29,2,3,1,2,0,0,1
215.0,0,3,1,0,0,2,2,0,0,0,1,6,26,29,3,3,1,2,0,0,0
216.0,0,2,1,1,0,2,1,1,0,0,1,6,26,29,2,4,0,3,0,0,0
217.0,0,1,1,2,0,2,0,2,0,0,1,7,26,29,1,3,1,2,0,0,1
218.0,0,0,1,2,1,2,0,2,0,0,1,7,26,29,1,3,1,2,0,0,1
219.0,1,0,0,2,2,1,0,2,0,0,0,7,25,29,2,3,1,3,1,0,0
220.0,3,0,0,1,3,0,0,2,0,1,1,7,25,29,1,3,1,3,1,0,0
221.0,2,1,0,0,3,0,1,2,0,1,1,6,25,29,1,3,1,4,1,0,0
222.0,2,2,0,0,2,0,2,2,0,1,2,6,25,30,1,2,1,3,0,0,1
223.0,2,2,1,0,1,0,3,0,0,2,2,6,25,30,2,2,1,3,0,0,1
224.0,2,1,2,0,0,1,3,0,0,2,3,6,24,30,2,3,1,2,0,0,1
225.0,0,2,2,1,0,2,2,0,0,1,3,6,25,30,2,3,1,2,0,0,0
226.0,0,1,1,2,1,2,2,0,0,1,2,6,25,31,2,4,0,2,0,0,0
227.0,1,0,2,2,1,2,1,1,0,1,1,6,25,31,2,3,0,3,0,0,1
228.0,2,0,1,2,2,2,0,2,1,0,1,7,25,31,1,3,0,3,0,0,1
229.0,2,0,0,1,3,2,1,2,1,0,2,7,24,31,1,3,0,3,0,0,1
230.0,0,2,0,0,4,1,1,2,1,1,1,8,24,31,0,3,0,2,1,1,0
231.0,0,1,1,0,3,0,2,2,1,2,1,7,24,32,0,3,0,2,1,1,0
232.0,0,0,1,1,2,1,2,2,1,2,1,7,24,32,0,2,0,2,1,1,1
233.0,1,0,0,2,0,2,3,1,1,3,1,7,24,32,0,2,0,1,0,3,1
234.0,0,1,0,1,1,3,2,0,1,3,1,6,24,32,1,2,0,2,0,3,1
235.0,1,1,0,0,2,2,2,1,1,2,1,6,25,32,2,2,0,2,0,2,0
236.0,2,0,1,0,2,1,2,2,2,1,1,5,25,33,2,2,0,2,0,2,0
237.0,2,1,0,1,1,3,1,1,2,2,1,5,25,33,2,2,0,2,0,2,0
238.0,2,2,0,1,0,2,2,2,2,2,1,5,25,33,2,1,0,2,0,2,1
239.0,1,2,1,1,0,2,2,2,2,2,1,5,24,33,2,1,0,2,0,3,1
240.0,0,2,1,1,1,1,1,3,3,1,1,6,26,33,0,1,0,3,0,2,1
241.0,0,1,1,1,2,2,0,2,3,2,1,5,27,32,0,1,0,3,1,2,0
242.0,0,0,1,2,2,2,0,1,2,2,1,5,27,32,2,0,1,2,1,2,1
243.0,0,0,0,2,2,1,1,2,2,1,1,5,27,32,3,0,1,2,1,2,1
244.0,1,0,0,1,3,0,1,2,2,2,1,5,26,32,3,0,2,3,0,2,1
245.0,1,0,0,0,3,0,2,1,1,2,1,5,28,31,4,0,3,2,0,2,0
246.0,1,1,0,0,2,1,2,1,1,1,1,4,29,31,5,0,3,2,0,2,0
247.0,2,1,0,0,1,2,2,0,1,1,1,6,29,32,3,0,3,2,0,2,0
248.0,1,1,1,0,0,2,3,0,1,1,1,7,28,32,2,0,3,3,0,2,0
249.0,0,1,1,1,0,2,2,1,1,1,1,7,28,32,2,0,4,2,0,2,0
250.0,0,1,0,2,0,3,1,1,2,0,1,5,30,32,2,0,4,2,1,1,0
251.0,0,0,1,1,1,2,1,2,2,0,1,5,30,32,2,1,3,2,1,1,0
252.0,0,0,0,1,2,2,0,2,1,1,1,6,31,33,1,3,1,1,1,1,0
253.0,0,0,0,1,2,1,0,3,1,1,1,6,30,34,1,4,1,1,0,1,0
254.0,0,0,0,0,3,1,0,2,1,2,1,6,30,35,1,4,1,1,0,0,0
255.0,0,0,0,0,2,1,1,1,1,3,1,5,30,35,2,3,1,1,0,0,1
256.0,0,0,0,0,1,0,2,2,1,3,1,4,31,34,3,3,1,1,0,0,1
257.0,0,0,0,0,0,0,3,1,2,2,1,4,31,35,3,4,0,1,0,0,1
258.0,0,0,0,0,0,2,1,1,1,2,1,4,30,36,4,4,0,1,0,0,1
259.0,2,0,0,0,0,2,1,0,1,1,1,5,30,36,5,4,0,1,0,0,0
260.0,2,0,0,0,0,1,1,1,1,1,1,5,30,36,5,4,0,1,0,0,0
261.0,2,2,0,0,0,1,0,2,1,1,1,3,30,38,4,3,0,2,0,0,1
262.0,2,2,0,0,0,1,0,2,1,0,1,4,30,38,4,3,0,2,0,0,1
263.0,0,2,2,0,0,1,0,1,1,1,1,4,29,38,4,3,0,3,0,0,1
264.0,1,2,1,1,0,0,0,1,1,1,1,4,29,38,5,3,0,3,0,0,0
265.0,2,1,1,1,1,0,0,1,1,1,1,3,31,37,5,3,0,3,0,0,0
266.0,1,1,1,2,1,0,0,1,0,1,1,3,31,38,5,2,0,3,0,0,1
267.0,2,2,0,2,2,0,0,0,0,1,1,3,32,38,5,2,0,2,0,1,1
268.0,2,2,0,1,3,0,0,0,0,0,0,3,32,38,6,2,0,3,0,1,1
269.0,0,2,2,0,3,0,1,0,0,0,0,3,32,38,6,2,0,2,0,2,0
270.0,0,2,1,1,1,0,3,0,0,0,0,3,33,38,5,2,0,2,0,2,0
271.0,1,0,2,2,1,0,3,0,0,0,0,4,33,39,4,1,0,2,0,1,1
272.0,1,0,1,2,1,1,3,0,0,0,0,5,33,39,3,1,0,2,0,1,1
273.0,0,1,0,2,2,2,2,0,0,0,0,6,32,39,3,1,0,2,0,1,1
274.0,0,1,0,1,3,3,1,0,0,0,0,5,33,39,3,1,0,1,0,2,0
275.0,1,0,1,0,3,2,2,1,0,0,1,4,33,39,3,1,0,1,0,2,0
276.0,1,0,0,1,2,2,2,2,0,0,1,4,35,38,2,0,1,1,0,1,1
277.0,1,0,0,1,0,2,4,2,0,0,1,5,35,38,1,0,1,1,0,1,1
278.0,0,1,0,0,1,1,4,2,0,1,1,6,34,38,0,0,1,0,0,3,1
279.0,1,0,1,0,1,2,2,2,0,2,1,6,34,38,0,0,1,0,0,3,0
280.0,1,0,0,1,1,2,2,2,0,2,1,5,36,37,0,0,1,0,0,3,0
281.0,0,1,0,1,0,3,2,1,0,3,0,5,36,38,0,0,1,0,1,2,0
282.0,1,1,0,0,1,2,1,2,0,4,0,5,36,38,0,0,1,0,1,2,0
283.0,1,0,1,0,1,2,1,2,1,3,0,5,36,38,0,0,1,0,1,2,0
284.0,1,1,0,1,1,2,0,3,1,3,1,4,35,38,0,0,1,1,1,2,0
285.0,3,1,0,1,0,1,1,2,1,2,1,5,37,37,1,0,1,1,1,2,0
286.0,2,1,1,0,1,1,1,2,1,2,1,5,37,38,1,0,1,1,1,1,0
287.0,0,3,0,1,1,0,1,3,1,2,1,5,37,38,1,1,1,1,0,1,0
288.0,1,2,1,1,1,1,0,2,2,1,2,6,36,38,1,1,1,1,0,1,0
289.0,1,1,1,1,1,1,1,1,2,1,1,7,36,39,1,1,1,1,0,1,0
290.0,0,1,1,2,1,1,1,1,2,0,2,5,39,38,2,1,1,1,0,0,0
291.0,1,0,1,2,2,0,1,1,2,0,2,5,39,38,3,1,1,1,0,0,0
292.0,1,0,0,2,3,1,0,1,2,0,1,6,38,38,3,1,0,1,0,1,1
293.0,1,1,0,1,3,1,1,1,2,0,1,6,38,38,3,1,0,1,0,1,1
294.0,1,1,0,0,3,1,2,0,2,0,1,8,38,38,2,1,0,1,0,1,1
295.0,0,1,1,0,3,0,2,1,2,0,0,7,40,38,1,1,0,2,0,1,0
296.0,2,1,0,1,1,1,3,1,2,0,0,7,40,38,1,1,0,2,0,1,0
297.0,2,0,1,0,1,2,3,1,0,0,2,7,39,38,3,0,0,2,0,0,1
298.0,1,2,0,1,1,2,3,0,0,1,2,7,39,38,3,0,0,2,0,0,1
299.0,1,1,1,1,1,2,2,1,0,1,2,7,39,38,3,0,0,2,0,0,1
300.0,0,1,1,1,2,1,2,2,0,1,2,8,39,38,3,0,0,1,0,0,0
301.0,1,1,0,2,1,2,2,2,0,1,2,7,39,39,3,0,0,1,0,0,0
302.0,3,0,1,1,2,3,1,1,0,1,1,9,38,39,2,0,0,1,2,0,0
303.0,1,2,0,1,2,1,2,2,0,1,1,9,38,39,3,0,0,1,2,0,0
304.0,2,2,0,1,2,2,1,2,0,1,1,9,38,39,3,0,0,0,3,0,0
305.0,2,1,2,0,2,2,2,1,0,2,1,8,40,39,2,0,1,0,2,0,0
306.0,2,2,1,1,1,2,2,1,0,3,2,7,40,39,2,0,1,1,1,0,0
307.0,1,2,1,2,1,1,2,2,0,3,1,7,40,39,1,0,1,2,1,1,0
308.0,1,1,1,2,1,2,2,2,1,2,1,8,40,39,0,0,2,2,0,1,0
309.0,0,1,1,2,2,3,1,1,1,3,1,8,40,39,0,0,2,2,0,1,0
310.0,1,1,0,2,3,2,1,1,1,2,1,8,41,38,2,0,2,2,0,1,0
311.0,3,0,1,1,3,1,2,2,1,2,1,8,41,38,2,0,2,2,0,1,0
312.0,3,1,0,1,3,2,2,2,1,2,0,7,41,40,2,0,2,2,0,1,0
313.0,2,3,0,1,2,1,3,2,2,1,2,8,40,40,2,1,1,1,0,1,0
314.0,1,3,1,0,2,2,3,1,2,2,2,7,41,40,2,1,1,1,0,1,0
315.0,0,3,1,1,1,2,3,2,2,2,2,7,41,41,1,1,1,1,0,1,0
316.0,0,2,1,2,1,2,3,1,1,1,2,9,41,41,2,2,0,1,0,1,0
317.0,1,1,1,2,1,2,3,2,1,1,1,8,41,41,3,2,0,1,1,1,0
318.0,1,0,1,2,2,2,2,2,1,1,1,9,40,41,3,1,1,2,1,0,1
319.0,0,1,1,1,3,2,2,2,1,0,1,8,41,41,4,1,1,2,1,0,1
320.0,0,1,0,1,3,2,2,2,1,0,1,11,41,40,3,1,1,2,0,1,1
321.0,0,0,1,0,3,2,2,2,0,1,1,11,41,41,3,1,1,2,0,1,0
322.0,0,0,0,1,2,2,3,2,0,1,2,10,41,41,2,1,1,2,0,2,0
323.0,0,0,0,1,1,2,3,2,0,1,1,11,41,41,2,1,1,2,0,3,0
324.0,1,0,0,1,0,2,3,2,0,1,1,11,42,41,2,0,1,2,0,3,1
325.0,2,0,0,0,1,2,3,2,0,0,1,12,43,40,2,0,1,2,1,2,1
326.0,3,1,0,0,1,3,2,1,0,0,1,12,44,41,1,0,1,2,1,2,1
327.0,2,2,0,0,1,2,1,2,0,0,1,13,44,41,1,1,1,2,0,2,0
328.0,1,3,1,0,0,2,2,2,0,0,0,13,43,43,1,1,1,2,0,2,0
329.0,2,2,1,1,0,2,1,3,0,0,0,12,43,43,2,1,1,2,0,2,0
330.0,2,2,1,1,1,1,1,2,0,0,0,15,44,42,1,1,1,3,0,1,0
331.0,0,3,1,2,1,2,0,2,0,0,0,14,44,42,2,1,1,3,0,1,0
332.0,0,2,1,2,2,1,0,3,0,0,1,14,43,43,2,0,1,2,0,1,1
333.0,0,1,1,2,3,1,0,1,0,0,1,16,43,43,2,1,1,1,0,1,1
334.0,0,0,1,2,3,0,1,2,0,0,1,16,43,43,2,1,1,1,0,1,1
335.0,0,0,0,2,3,0,2,2,0,0,1,15,44,42,2,2,0,2,1,0,0
336.0,2,0,0,1,3,1,2,1,0,1,2,14,43,42,3,2,0,2,1,0,0
337.0,2,0,0,0,4,1,2,0,0,1,1,15,43,43,2,2,0,2,2,0,0
338.0,1,2,0,0,2,2,3,0,0,1,1,15,43,43,2,2,1,2,1,0,0
339.0,1,2,0,0,1,3,3,0,0,1,1,14,45,43,1,1,1,3,0,0,1
340.0,1,1,2,0,1,1,3,2,0,1,1,15,45,42,1,1,1,3,0,0,1
341.0,1,1,1,1,0,2,3,2,1,0,2,14,44,42,2,1,1,2,0,1,1
342.0,1,1,1,2,0,3,2,2,1,0,1,14,44,43,1,1,1,3,0,1,0
343.0,1,2,0,2,1,1,2,3,1,0,1,15,44,43,1,1,1,2,0,2,0
344.0,1,1,1,0,3,2,1,2,1,0,1,15,46,42,1,0,1,2,0,2,1
345.0,0,1,1,1,3,2,0,3,1,0,1,15,46,42,1,0,1,2,0,2,1
346.0,0,1,0,2,2,1,1,3,1,0,0,16,45,44,1,1,0,2,1,1,1
347.0,0,0,1,1,1,0,3,3,1,0,0,17,45,44,1,1,0,2,1,1,0
348.0,0,0,0,1,2,0,3,3,1,0,0,17,45,44,1,1,0,2,1,1,0
349.0,1,0,0,1,2,2,2,2,0,0,0,17,45,43,2,1,1,1,0,3,0
350.0,2,0,0,0,2,3,2,1,0,1,0,16,45,43,3,0,1,1,1,2,1
351.0,2,1,0,0,1,3,3,1,0,1,1,15,44,44,3,0,1,1,1,2,1
352.0,1,2,0,0,1,2,2,1,0,2,1,16,44,45,3,0,1,0,1,2,1
353.0,0,2,1,0,0,3,2,1,0,2,1,16,44,44,3,1,2,0,0,2,0
354.0,1,1,1,1,0,3,2,1,0,2,1,15,45,45,2,1,2,0,0,2,0
355.0,1,0,1,2,0,2,1,2,0,3,2,15,46,45,1,1,2,0,0,1,0
356.0,0,1,0,2,1,3,0,2,0,2,1,14,47,45,2,1,2,0,1,1,0
357.0,1,1,0,2,1,3,0,1,1,1,1,15,47,45,2,1,2,0,1,1,0
358.0,0,1,1,0,3,1,0,2,1,2,1,15,47,45,2,2,1,0,1,1,0
359.0,0,1,0,1,2,1,1,2,1,2,0,14,48,44,3,1,1,2,0,1,1
360.0,1,1,0,1,2,1,1,2,1,1,0,14,47,45,4,1,1,2,0,1,1
361.0,1,0,0,1,1,0,3,1,1,2,0,15,48,46,2,2,1,2,0,0,1
362.0,1,1,0,1,1,1,2,1,1,2,0,15,48,46,2,3,0,2,0,0,0
363.0,1,1,0,1,1,1,2,1,2,1,0,15,48,45,2,3,0,3,0,0,0
364.0,0,1,1,0,2,2,1,0,2,2,0,14,48,45,3,2,0,3,0,0,1
365.0,1,1,0,1,1,2,1,1,2,2,1,14,48,45,2,2,0,3,0,0,1
366.0,2,0,1,1,0,2,2,1,1,1,1,15,48,45,3,2,0,3,0,0,0
367.0,1,1,0,1,1,1,2,2,1,1,1,14,48,45,4,2,0,1,1,1,0
368.0,2,2,0,1,1,1,1,2,1,0,1,14,49,46,4,2,0,1,1,1,0
369.0,3,1,1,0,2,2,0,2,1,0,2,14,48,46,4,1,1,1,1,1,0
370.0,2,2,1,1,1,1,1,2,1,0,1,15,48,46,4,1,1,1,2,1,0
371.0,3,3,0,2,1,1,1,1,0,0,1,18,48,46,3,1,1,1,1,2,0
372.0,4,2,2,1,1,1,2,1,0,0,1,17,48,46,4,1,2,1,1,1,0
373.0,4,4,1,1,2,1,1,1,0,1,2,16,48,45,5,1,2,2,0,1,0
374.0,2,4,2,2,2,1,1,1,0,1,1,16,48,46,4,0,2,2,1,1,1
375.0,2,5,1,2,2,2,1,1,0,1,2,17,47,46,3,0,2,1,1,2,1
376.0,3,4,2,2,3,1,1,1,0,2,2,18,47,46,2,0,1,1,1,2,1
377.0,2,5,1,2,3,1,2,1,0,2,2,17,48,45,3,0,2,2,0,1,1
378.0,0,5,2,2,3,1,2,2,0,1,2,17,48,45,4,0,2,2,0,1,0
379.0,1,5,1,2,3,1,3,1,0,1,1,17,49,46,4,0,2,2,0,1,0
380.0,1,3,2,2,3,2,3,1,0,1,2,17,48,46,4,1,1,2,0,1,0
381.0,0,4,1,2,3,2,3,1,0,0,2,18,49,46,4,1,1,2,1,0,0
382.0,1,2,2,2,3,3,3,1,0,0,1,17,51,45,4,3,1,1,1,0,0
383.0,1,2,1,2,3,2,4,2,0,0,1,18,51,45,3,3,1,1,1,0,0
384.0,2,1,2,2,3,2,4,2,0,0,1,18,51,46,3,2,1,1,1,0,1
385.0,2,2,1,2,3,3,4,2,0,0,2,18,50,47,2,3,1,1,0,0,1
386.0,3,2,1,2,3,2,5,2,0,0,2,19,50,47,2,3,1,0,0,1,1
387.0,2,2,1,2,3,2,5,2,0,0,2,20,50,46,2,3,1,0,0,2,0
388.0,0,3,1,2,3,3,5,2,0,0,2,19,50,47,1,3,1,1,0,2,0
389.0,1,2,1,2,3,2,6,2,0,0,2,20,50,47,1,3,1,1,0,2,0
390.0,1,1,1,2,3,2,6,2,0,1,0,21,51,47,1,2,2,1,0,2,0
391.0,1,1,1,2,3,3,6,2,0,1,0,21,50,48,1,3,2,1,0,1,0
392.0,2,1,0,2,3,3,7,1,0,2,1,20,50,48,1,4,1,1,0,1,0
393.0,2,1,1,1,3,2,7,2,0,3,1,19,50,48,2,4,1,1,0,1,0
394.0,3,2,0,1,3,3,7,2,0,3,1,19,50,48,2,4,1,1,0,1,0
395.0,2,2,1,1,3,2,7,2,1,3,1,19,50,48,2,3,1,1,1,1,0
396.0,0,3,1,1,2,2,8,2,1,3,1,20,49,49,2,3,1,0,2,1,0
397.0,1,2,1,2,1,3,8,2,2,2,0,19,50,49,2,3,1,0,2,2,0
398.0,2,1,1,2,2,3,8,2,2,2,0,19,50,50,1,3,2,1,0,2,0
399.0,1,1,1,2,2,3,7,2,2,3,0,19,50,50,2,2,2,1,0,2,1
400.0,0,2,0,2,3,3,7,2,3,2,0,19,50,50,2,2,2,1,0,2,1
401.0,1,0,2,1,2,2,9,3,3,2,0,19,49,51,2,2,2,1,1,1,1
402.0,2,0,1,1,3,2,8,2,3,3,0,19,51,50,1,2,2,1,1,2,0
403.0,1,1,0,2,2,3,8,2,4,2,0,19,51,50,1,2,2,1,1,2,0
404.0,0,2,0,1,2,4,8,2,4,2,0,18,52,50,0,2,3,1,0,3,0
405.0,0,1,1,0,2,2,9,2,4,2,0,19,52,50,1,1,3,1,0,3,1
406.0,1,0,1,1,2,3,8,2,3,2,1,19,51,49,2,1,3,0,0,5,1
407.0,0,1,0,2,1,3,9,2,3,2,1,19,51,49,2,2,2,0,0,5,0
408.0,0,1,0,1,1,2,9,2,3,2,1,19,51,50,3,2,2,0,0,5,0
409.0,0,1,0,0,2,3,8,2,3,2,1,19,51,51,2,1,1,0,0,5,2
410.0,0,0,0,1,1,3,9,2,4,1,1,19,51,51,2,1,1,0,0,5,2
411.0,0,0,0,1,1,2,8,2,4,3,0,19,51,52,1,1,1,1,0,5,2
412.0,0,0,0,0,1,3,8,2,4,3,0,19,52,52,0,2,0,1,0,5,0
413.0,0,0,0,0,1,2,8,3,4,2,0,18,53,52,1,2,0,1,0,5,0
414.0,0,0,0,0,1,2,7,2,2,4,0,18,53,52,3,1,0,1,0,5,1
415.0,0,0,0,0,0,3,7,2,2,4,0,18,53,52,3,1,0,1,0,5,1
416.0,0,0,0,0,0,2,7,3,2,4,0,18,52,51,3,1,0,1,0,7,1
417.0,0,0,0,0,0,2,6,2,2,4,0,19,53,51,3,1,1,1,0,6,0
418.0,0,0,0,0,0,3,5,2,2,4,0,20,54,51,1,1,1,1,0,6,0
419.0,0,0,0,0,0,2,5,3,3,3,0,20,54,52,0,0,1,0,1,6,1
420.0,0,0,0,0,0,2,4,3,3,4,0,20,54,52,0,0,1,0,1,6,1
421.0,0,0,0,0,0,3,3,2,2,5,0,20,54,52,1,0,1,0,1,6,1
422.0,0,0,0,0,0,2,3,3,1,4,0,20,55,51,3,1,1,0,0,6,0
423.0,0,0,0,0,0,1,3,2,1,5,0,21,55,51,3,1,1,0,0,6,0
424.0,0,0,0,0,0,3,1,2,1,4,0,21,55,51,4,1,1,0,0,6,0
425.0,0,0,0,0,0,2,1,3,1,4,0,22,55,51,3,1,0,0,0,6,1
426.0,0,0,0,0,0,3,0,1,1,6,0,22,56,50,3,1,0,0,0,6,1
427.0,0,0,0,0,0,2,0,2,1,6,0,22,58,50,1,0,1,1,0,5,1
428.0,0,0,0,0,0,1,0,3,1,5,0,23,58,50,1,0,1,1,0,5,0
429.0,0,0,0,0,0,1,0,2,0,5,0,23,58,50,3,0,1,1,0,5,0
430.0,0,0,0,0,0,0,0,2,0,4,0,25,59,50,2,0,1,1,0,5,0
431.0,0,0,0,0,0,0,0,2,0,4,1,25,58,50,2,0,1,1,0,5,0
432.0,0,0,0,0,0,0,0,1,0,3,2,27,59,49,2,0,1,1,0,4,0
433.0,0,0,0,0,0,0,0,0,0,3,2,27,59,49,3,0,1,1,0,4,0
434.0,0,0,0,0,0,0,0,0,0,3,3,27,60,50,1,0,0,0,0,4,1
435.0,0,0,0,0,0,0,0,0,0,2,3,28,60,50,1,0,0,0,0,4,1
436.0,0,0,0,0,0,0,0,0,0,2,5,28,59,49,1,0,0,0,0,4,1
437.0,0,0,0,0,0,0,0,0,0,1,3,30,59,49,1,0,0,0,2,3,0
438.0,0,0,0,0,0,0,0,0,0,1,3,29,59,50,1,0,0,0,2,3,0
439.0,0,0,0,0,0,0,0,0,0,1,2,28,59,51,2,0,0,0,2,3,0
440.0,0,0,0,0,0,0,0,0,1,0,2,28,59,51,2,0,1,1,0,3,0
441.0,0,0,0,0,0,0,0,0,1,0,2,28,58,51,2,0,1,2,0,3,0
442.0,0,0,0,0,0,0,0,0,1,0,1,28,58,51,2,0,1,3,1,2,0
443.0,0,0,0,0,0,0,0,0,1,0,1,27,58,52,1,0,1,4,1,2,0
444.0,0,0,0,0,0,0,0,0,1,0,1,27,58,53,0,0,1,4,1,2,0
445.0,0,0,0,0,0,0,0,0,1,0,1,26,59,53,1,0,1,4,0,2,0
446.0,0,0,0,0,0,0,0,0,1,0,0,26,61,52,1,0,1,4,0,2,0
447.0,0,0,0,0,0,0,0,0,0,0,2,26,60,52,2,1,0,4,0,1,0
448.0,0,0,0,0,0,0,0,0,0,0,2,25,60,52,2,2,0,4,0,1,0
449.0,0,0,0,0,0,0,0,0,0,0,2,25,60,52,3,2,0,3,0,1,0
450.0,0,0,0,0,0,0,0,0,0,0,3,25,60,52,2,2,0,3,0,1,0
451.0,0,0,0,0,0,0,0,0,0,0,3,26,60,52,2,2,0,3,0,0,0
452.0,0,0,0,0,0,0,0,0,0,0,3,26,59,52,2,1,0,4,0,0,1
453.0,0,0,0,0,0,0,0,0,0,0,3,26,59,53,1,1,0,4,0,0,1
454.0,0,0,0,0,0,0,0,0,0,0,3,25,59,53,2,1,0,4,0,0,1
455.0,0,0,0,0,0,0,0,0,0,0,2,25,60,52,2,1,0,4,1,0,0
456.0,0,0,0,0,0,0,0,0,0,0,0,25,60,53,2,1,0,5,1,0,0
457.0,0,0,0,0,0,0,0,0,0,0,1,25,59,53,2,0,1,3,3,0,0
458.0,0,0,0,0,0,0,0,0,0,0,1,23,59,53,4,0,1,3,2,1,0
459.0,0,0,0,0,0,0,0,0,0,0,1,23,60,53,2,0,1,3,2,2,0
460.0,0,0,0,0,0,0,0,0,0,0,1,23,60,52,2,0,2,4,1,2,0
461.0,0,0,0,0,0,0,0,0,0,0,1,23,60,52,2,0,3,4,0,2,0
462.0,0,0,0,0,0,0,0,0,0,0,1,23,59,52,2,0,3,5,0,2,0
463.0,0,0,0,0,0,0,0,0,0,0,1,21,59,52,3,0,4,6,0,1,0
464.0,0,0,0,0,0,0,0,0,0,0,1,21,59,52,2,0,4,5,0,3,0
465.0,0,0,0,0,0,0,0,0,0,0,1,21,59,51,2,0,4,4,2,3,0
466.0,0,0,0,0,0,0,0,0,0,0,1,21,59,51,2,0,3,4,2,3,1
467.0,0,0,0,0,0,0,0,0,0,0,1,21,59,52,2,1,2,4,2,2,1
468.0,0,0,0,0,0,0,0,0,0,0,1,21,59,52,1,3,2,4,0,3,0
469.0,0,0,0,0,0,0,0,0,0,0,0,19,60,53,2,3,2,4,0,3,0
470.0,0,0,0,0,0,0,0,0,0,0,0,20,60,52,2,3,2,4,0,3,0
471.0,0,0,0,0,0,0,0,0,0,0,0,20,60,52,2,4,1,3,0,4,0
472.0,0,0,0,0,0,0,0,0,0,0,0,20,59,53,2,3,1,3,1,3,1
473.0,0,0,0,0,0,0,0,0,0,0,0,20,59,53,1,3,1,2,2,4,1
474.0,0,0,0,0,0,0,0,0,0,0,0,18,60,55,0,3,1,2,2,4,1
475.0,0,0,0,0,0,0,0,0,0,0,0,18,60,54,0,4,1,2,1,5,0
476.0,0,0,0,0,0,0,0,0,0,0,0,18,60,54,0,5,1,2,0,5,0
477.0,0,0,0,0,0,0,0,0,0,0,0,18,60,54,0,4,1,2,1,4,1
478.0,0,0,0,0,0,0,0,0,0,0,0,18,59,55,0,4,1,2,1,4,1
479.0,0,0,0,0,0,0,0,0,0,0,0,16,60,54,2,4,1,1,1,5,1
480.0,0,0,0,0,0,0,0,0,0,0,0,16,60,54,2,5,1,1,0,5,0
481.0,0,0,0,0,0,0,0,0,0,0,0,16,60,55,2,5,1,0,0,5,0
482.0,0,0,0,0,0,0,0,0,0,0,0,16,59,55,2,5,1,1,0,5,0
483.0,0,0,0,0,0,0,0,0,0,0,0,16,59,55,2,5,1,1,0,5,0
484.0,0,0,0,0,0,0,0,0,0,0,0,14,62,55,1,5,1,1,0,5,0
485.0,0,0,0,0,0,0,0,0,0,0,0,14,62,55,1,5,1,1,0,5,0
486.0,0,0,0,0,0,0,0,0,0,0,0,14,62,55,1,4,2,1,0,5,0
487.0,0,0,0,0,0,0,0,0,0,0,0,14,62,56,1,4,2,1,0,4,0
488.0,0,0,0,0,0,0,0,0,0,0,0,15,61,56,1,4,2,1,0,4,0
489.0,0,0,0,0,0,0,0,0,0,0,0,13,62,57,1,4,2,1,0,4,0
490.0,0,0,0,0,0,0,0,0,0,0,0,13,63,56,1,4,1,0,0,5,1
491.0,0,0,0,0,0,0,0,0,0,0,0,13,63,56,1,3,1,0,0,5,2
492.0,0,0,0,0,0,0,0,0,0,0,0,13,64,56,1,3,1,0,0,4,2
493.0,0,0,0,0,0,0,0,0,0,0,0,13,63,56,1,3,0,1,0,4,2
494.0,0,0,0,0,0,0,0,0,0,0,0,12,64,56,1,3,0,1,0,4,1
495.0,0,0,0,0,0,0,0,0,0,0,0,12,64,55,2,2,0,1,0,4,2
496.0,0,0,0,0,0,0,0,0,0,0,0,12,64,55,2,2,0,1,1,3,1
497.0,0,0,0,0,0,0,0,0,0,0,0,12,63,55,2,2,0,1,1,4,1
498.0,0,0,0,0,0,0,0,0,0,0,0,12,63,55,2,2,0,1,1,4,1
499.0,0,0,0,0,0,0,0,0,0,0,0,11,64,54,2,2,0,1,2,4,0
500.0,0,0,0,0,0,0,0,0,0,0,0,10,65,54,2,1,2,0,1,5,0
501.0,0,0,0,0,0,0,0,0,0,0,0,10,65,54,2,1,2,0,1,5,0
502.0,0,0,0,0,0,0,0,0,0,0,0,10,64,54,2,1,2,0,2,5,0
503.0,0,0,0,0,0,0,0,0,0,0,0,10,64,54,2,1,3,0,1,5,0
504.0,0,0,0,0,0,0,0,0,0,0,0,9,64,53,3,1,3,1,1,5,0
505.0,0,0,0,0,0,0,0,0,0,0,0,8,66,54,1,1,4,1,0,5,0
506.0,0,0,0,0,0,0,0,0,0,0,0,8,66,54,1,0,4,1,0,5,1
507.0,0,0,0,0,0,0,0,0,0,0,0,8,65,54,1,1,3,1,1,5,1
508.0,0,0,0,0,0,0,0,0,0,0,0,8,65,54,1,1,2,1,1,5,2
509.0,0,0,0,0,0,0,0,0,0,0,0,7,66,54,1,1,2,1,1,5,1
510.0,0,0,0,0,0,0,0,0,0,0,0,6,66,53,2,3,1,1,1,5,1
511.0,0,0,0,0,0,0,0,0,0,0,0,6,66,53,2,3,1,1,1,5,0
512.0,0,0,0,0,0,0,0,0,0,0,1,6,65,54,2,2,2,0,0,5,1
513.0,0,0,0,0,0,0,0,0,0,0,1,6,65,54,2,3,1,0,0,5,1
514.0,0,0,0,0,0,0,0,0,0,0,1,5,66,54,1,3,1,0,0,6,1
515.0,0,0,0,0,0,0,0,0,0,0,1,4,67,53,0,3,1,2,0,6,0
516.0,0,0,0,0,0,0,0,0,0,0,1,4,67,53,0,3,1,2,0,6,0
517.0,0,0,0,0,0,0,0,0,0,0,1,4,66,53,0,2,1,3,0,6,1
518.0,0,0,0,0,0,0,0,0,0,0,0,3,67,54,0,2,1,3,0,6,1
519.0,0,0,0,0,0,0,0,0,0,0,0,4,67,53,0,2,1,3,0,6,1
520.0,0,0,0,0,0,0,0,0,0,0,0,3,68,53,0,2,1,3,0,6,0
521.0,0,0,0,0,0,0,0,0,0,0,0,3,67,54,0,3,0,3,0,6,0
522.0,0,0,0,0,0,0,0,0,0,0,1,3,67,54,0,2,1,3,0,5,0
523.0,0,0,0,0,0,0,0,0,0,0,1,3,67,54,0,2,1,1,0,7,0
524.0,0,0,0,0,0,0,0,0,0,0,1,2,67,54,0,2,1,1,0,8,0
525.0,0,0,0,0,0,0,0,0,0,0,1,1,68,54,0,2,1,1,0,8,0
526.0,0,0,0,0,0,0,0,0,0,0,1,1,67,54,0,1,1,1,0,9,1
527.0,0,0,0,0,0,0,0,0,0,0,0,1,67,56,0,1,1,1,0,8,1
528.0,0,0,0,0,0,0,0,0,0,0,0,1,67,56,0,1,1,1,0,8,1
529.0,0,0,0,0,0,0,0,0,0,0,0,0,69,55,0,1,0,1,0,8,1
530.0,0,0,0,0,0,0,0,0,0,0,0,0,69,55,0,0,0,1,0,8,2
531.0,0,0,0,0,0,0,0,0,0,0,0,0,68,55,0,0,0,1,0,9,2
532.0,0,0,0,0,0,0,0,0,0,0,1,0,68,55,0,0,0,1,0,8,1
533.0,0,0,0,0,0,0,0,0,0,0,1,0,68,55,0,0,0,1,0,8,0
534.0,0,0,0,0,0,0,0,0,0,0,1,0,69,54,0,0,0,1,0,8,0
535.0,0,0,0,0,0,0,0,0,0,0,1,0,69,54,0,0,0,1,0,8,0
536.0,0,0,0,0,0,0,0,0,0,0,1,0,68,54,0,0,0,1,0,9,0
537.0,0,0,0,0,0,0,0,0,0,0,0,0,68,54,0,0,0,1,2,8,0
538.0,0,0,0,0,0,0,0,0,0,0,0,0,68,54,0,0,0,1,2,8,0
539.0,0,0,0,0,0,0,0,0,0,0,0,0,68,54,0,0,0,1,2,8,0
540.0,0,0,0,0,0,0,0,0,0,0,1,0,69,53,0,1,1,0,0,8,0
541.0,0,0,0,0,0,0,0,0,0,0,1,0,68,53,0,1,1,1,0,8,0
542.0,0,0,0,0,0,0,0,0,0,0,1,0,68,53,0,1,1,1,0,8,0
543.0,0,0,0,0,0,0,0,0,0,0,1,0,68,53,0,1,1,1,1,7,0
544.0,0,0,0,0,0,0,0,0,0,0,1,0,68,53,0,0,2,1,1,7,0
545.0,0,0,0,0,0,0,0,0,0,0,0,0,68,52,0,0,2,2,2,7,0
546.0,0,0,0,0,0,0,0,0,0,0,0,0,67,52,0,0,3,2,1,8,0
547.0,0,0,0,0,0,0,0,0,0,0,0,0,67,52,0,1,3,2,0,8,0
548.0,0,0,0,0,0,0,0,0,0,0,0,0,67,52,0,2,2,2,0,8,0
549.0,0,0,0,0,0,0,0,0,0,0,0,0,67,51,0,2,2,2,0,9,0
550.0,0,0,0,0,0,0,0,0,0,0,0,0,67,51,0,2,2,2,0,9,0
551.0,0,0,0,0,0,0,0,0,0,0,0,0,67,51,0,2,1,2,0,9,1
552.0,0,0,0,0,0,0,0,0,0,0,0,0,66,51,0,1,2,2,0,10,1
553.0,0,0,0,0,0,0,0,0,0,0,0,0,66,51,0,1,2,1,1,10,1
554.0,0,0,0,0,0,0,0,0,0,0,0,1,66,50,0,2,1,1,1,10,0
555.0,0,0,0,0,0,0,0,0,0,0,0,1,66,50,0,2,1,1,1,10,0
556.0,0,0,0,0,0,0,0,0,0,0,0,1,66,50,0,2,2,1,0,10,0
557.0,0,0,0,0,0,0,0,0,0,0,1,1,65,51,0,1,2,0,1,9,1
558.0,0,0,0,0,0,0,0,0,0,0,1,1,65,51,0,1,1,0,1,9,2
559.0,0,0,0,0,0,0,0,0,0,0,1,1,66,50,0,1,1,0,1,9,1
560.0,0,0,0,0,0,0,0,0,0,0,1,1,66,50,0,1,2,0,0,9,1
561.0,0,0,0,0,0,0,0,0,0,0,1,1,66,50,0,0,2,0,0,9,2
562.0,0,0,0,0,0,0,0,0,0,0,0,1,65,50,0,0,2,0,1,10,1
563.0,0,0,0,0,0,0,0,0,0,0,0,1,65,50,0,0,2,0,2,9,1
564.0,0,0,0,0,0,0,0,0,0,0,0,0,66,49,0,1,1,0,2,10,1
565.0,0,0,0,0,0,0,0,0,0,0,0,0,66,49,0,2,1,0,1,10,0
566.0,0,0,0,0,0,0,0,0,0,0,0,0,66,49,0,2,2,0,0,10,0
567.0,0,0,0,0,0,0,0,0,0,0,0,0,65,50,0,3,1,0,0,10,0
568.0,0,0,0,0,0,0,0,0,0,0,0,0,65,50,0,3,1,1,0,9,0
569.0,0,0,0,0,0,0,0,0,0,0,0,0,65,49,0,2,1,1,0,10,1
570.0,0,0,0,0,0,0,0,0,0,0,0,0,65,49,0,2,1,1,0,10,1
571.0,0,0,0,0,0,0,0,0,0,0,0,0,65,49,0,2,1,1,0,10,1
572.0,0,0,0,0,0,0,0,0,0,0,0,0,64,50,0,2,1,1,0,10,0
573.0,0,0,0,0,0,0,0,0,0,0,0,0,65,49,0,3,0,2,0,9,0
574.0,0,0,0,0,0,0,0,0,0,0,0,0,65,49,0,3,0,2,0,9,0
575.0,0,0,0,0,0,0,0,0,0,0,0,0,65,49,0,2,1,2,0,9,0
576.0,0,0,0,0,0,0,0,0,0,0,1,0,65,49,0,2,1,1,0,9,0
577.0,0,0,0,0,0,0,0,0,0,0,1,0,64,49,0,2,1,2,0,9,0
578.0,0,0,0,0,0,0,0,0,0,0,1,0,64,48,0,2,1,2,0,10,0
579.0,0,0,0,0,0,0,0,0,0,0,1,0,64,48,0,2,1,3,0,9,0
580.0,0,0,0,0,0,0,0,0,0,0,1,0,64,48,0,1,1,3,0,9,1
581.0,0,0,0,0,0,0,0,0,0,0,1,0,64,48,0,1,1,2,1,9,1
582.0,0,0,0,0,0,0,0,0,0,0,1,0,63,49,0,1,1,2,1,9,1
583.0,0,0,0,0,0,0,0,0,0,0,1,0,63,50,0,1,1,2,1,8,0
584.0,0,0,0,0,0,0,0,0,0,0,1,0,64,49,0,2,0,2,0,8,1
585.0,0,0,0,0,0,0,0,0,0,0,2,0,64,49,0,1,0,1,0,8,2
586.0,0,0,0,0,0,0,0,0,0,0,1,0,64,49,0,1,0,1,1,8,2
587.0,0,0,0,0,0,0,0,0,0,0,1,0,63,50,0,1,0,1,1,8,1
588.0,0,0,0,0,0,0,0,0,0,0,1,0,64,49,0,2,0,1,0,8,0
589.0,0,0,0,0,0,0,0,0,0,0,0,1,64,50,0,2,0,0,1,7,0
590.0,0,0,0,0,0,0,0,0,0,0,0,1,64,50,0,1,1,0,1,7,0
591.0,0,0,0,0,0,0,0,0,0,0,0,1,64,50,0,1,1,0,1,7,0
592.0,0,0,0,0,0,0,0,0,0,0,0,1,63,51,0,2,1,0,0,7,0
593.0,0,0,0,0,0,0,0,0,0,0,1,0,63,50,0,2,1,0,0,8,0
594.0,0,0,0,0,0,0,0,0,0,0,1,0,63,50,0,2,1,0,1,7,0
595.0,0,0,0,0,0,0,0,0,0,0,1,0,63,50,0,2,1,0,1,7,0
596.0,0,0,0,0,0,0,0,0,0,0,1,0,63,50,0,1,2,0,1,7,0
597.0,0,0,0,0,0,0,0,0,0,0,1,0,62,50,0,1,3,1,0,7,0
598.0,0,0,0,0,0,0,0,0,0,0,1,0,63,49,0,1,2,2,0,6,1
599.0,0,0,0,0,0,0,0,0,0,0,0,0,63,49,0,1,2,2,1,6,1
600.0,0,0,0,0,0,0,0,0,0,0,0,0,63,49,0,1,2,2,1,6,0
601.0,0,0,0,0,0,0,0,0,0,0,0,0,62,49,0,1,2,2,1,7,0
602.0,0,0,0,0,0,0,0,0,0,0,0,0,62,49,0,0,4,2,0,7,0
603.0,0,0,0,0,0,0,0,0,0,0,0,0,63,48,0,0,4,2,1,6,0
604.0,0,0,0,0,0,0,0,0,0,0,0,0,63,48,0,0,3,2,1,6,1
605.0,0,0,0,0,0,0,0,0,0,0,0,0,63,48,0,0,3,1,1,7,1
606.0,0,0,0,0,0,0,0,0,0,0,1,0,63,48,0,1,3,0,0,7,1
607.0,0,0,0,0,0,0,0,0,0,0,1,0,62,48,0,1,3,0,0,8,0
608.0,0,0,0,0,0,0,0,0,0,0,1,0,63,48,0,1,3,0,0,7,0
609.0,0,0,0,0,0,0,0,0,0,0,1,0,63,48,0,2,2,0,0,7,0
610.0,0,0,0,0,0,0,0,0,0,0,1,0,63,48,0,2,1,0,0,7,1
611.0,0,0,0,0,0,0,0,0,0,0,0,0,62,48,0,1,1,0,1,8,2
612.0,0,0,0,0,0,0,0,0,0,0,0,0,62,48,0,1,1,0,1,8,2
613.0,0,0,0,0,0,0,0,0,0,0,0,0,62,48,0,1,1,1,1,7,2
614.0,0,0,0,0,0,0,0,0,0,0,0,0,63,47,0,2,1,1,0,7,0
615.0,0,0,0,0,0,0,0,0,0,0,0,0,63,47,0,2,1,1,0,7,0
616.0,0,0,0,0,0,0,0,0,0,0,0,0,62,48,0,2,0,1,0,7,1
617.0,0,0,0,0,0,0,0,0,0,0,0,0,62,48,0,2,0,1,0,7,1
618.0,0,0,0,0,0,0,0,0,0,0,0,0,62,48,0,2,0,1,1,6,1
619.0,0,0,0,0,0,0,0,0,0,0,0,0,62,47,0,2,0,2,1,6,0
620.0,0,0,0,0,0,0,0,0,0,0,0,0,62,47,0,2,0,2,1,6,0
621.0,0,0,0,0,0,0,0,0,0,0,0,1,61,48,0,1,2,1,0,6,0
622.0,0,0,0,0,0,0,0,0,0,0,0,1,61,48,0,1,2,1,0,6,0
623.0,0,0,0,0,0,0,0,0,0,0,0,1,61,48,0,1,2,1,0,6,0
624.0,0,0,0,0,0,0,0,0,0,0,0,2,61,47,0,1,2,2,0,5,0
625.0,0,0,0,0,0,0,0,0,0,0,0,2,60,47,0,0,2,3,0,5,1
626.0,0,0,0,0,0,0,0,0,0,0,1,1,60,47,0,0,2,2,0,6,1
627.0,0,0,0,0,0,0,0,0,0,0,1,1,60,47,0,0,2,2,0,6,1
628.0,0,0,0,0,0,0,0,0,0,0,1,1,60,47,0,0,2,2,0,6,0
629.0,0,0,0,0,0,0,0,0,0,0,1,0,61,46,0,1,0,3,1,5,1
630.0,0,0,0,0,0,0,0,0,0,0,1,1,60,46,0,1,0,3,1,5,1
631.0,0,0,0,0,0,0,0,0,0,0,1,1,60,46,0,1,0,3,1,5,1
632.0,0,0,0,0,0,0,0,0,0,0,0,1,60,46,0,1,1,3,1,5,0
633.0,0,0,0,0,0,0,0,0,0,0,0,1,60,46,0,1,1,3,1,5,0
634.0,0,0,0,0,0,0,0,0,0,0,0,1,61,45,0,0,1,3,1,5,1
635.0,0,0,0,0,0,0,0,0,0,0,0,1,60,46,0,0,1,2,1,6,1
636.0,0,0,0,0,0,0,0,0,0,0,0,0,60,46,0,0,2,3,0,6,1
637.0,0,0,0,0,0,0,0,0,0,0,0,0,60,46,0,0,2,3,0,6,0
638.0,0,0,0,0,0,0,0,0,0,0,1,0,60,46,0,0,2,3,0,5,0
639.0,0,0,0,0,0,0,0,0,0,0,1,0,61,45,0,1,1,3,0,5,0
640.0,0,0,0,0,0,0,0,0,0,0,2,0,61,45,0,1,1,2,0,5,0
641.0,0,0,0,0,0,0,0,0,0,0,2,0,60,46,0,1,1,2,0,5,0
642.0,0,0,0,0,0,0,0,0,0,0,2,0,60,46,0,1,1,2,0,5,0
643.0,0,0,0,0,0,0,0,0,0,0,2,0,60,47,0,2,0,2,0,4,0
644.0,0,0,0,0,0,0,0,0,0,0,2,0,60,46,0,1,0,2,0,5,1
645.0,0,0,0,0,0,0,0,0,0,0,1,0,59,46,0,1,0,2,1,6,1
646.0,0,0,0,0,0,0,0,0,0,0,1,0,59,46,0,1,0,2,1,6,1
647.0,0,0,0,0,0,0,0,0,0,0,1,0,59,46,0,1,0,2,1,6,0
648.0,0,0,0,0,0,0,0,0,0,0,0,0,59,46,0,1,1,2,1,6,0
649.0,0,0,0,0,0,0,0,0,0,0,0,0,60,45,0,1,1,2,1,6,0
650.0,0,0,0,0,0,0,0,0,0,0,0,0,60,45,0,0,1,2,1,6,1
651.0,0,0,0,0,0,0,0,0,0,0,1,0,59,45,0,1,1,2,0,6,1
652.0,0,0,0,0,0,0,0,0,0,0,1,0,59,45,0,1,1,2,0,6,1
653.0,0,0,0,0,0,0,0,0,0,0,1,0,59,45,0,1,1,2,1,5,0
654.0,0,0,0,0,0,0,0,0,0,0,1,0,60,44,0,1,1,2,1,5,0
655.0,0,0,0,0,0,0,0,0,0,0,1,0,60,44,0,2,0,2,1,5,0
656.0,0,0,0,0,0,0,0,0,0,0,0,0,59,44,0,2,0,3,2,5,0
657.0,0,0,0,0,0,0,0,0,0,0,1,0,59,44,0,1,2,2,1,5,0
658.0,0,0,0,0,0,0,0,0,0,0,1,0,59,43,0,1,2,3,2,4,0
659.0,0,0,0,0,0,0,0,0,0,0,1,0,59,43,0,1,3,2,1,5,0
660.0,0,0,0,0,0,0,0,0,0,0,1,0,59,43,0,1,3,2,1,5,0
661.0,0,0,0,0,0,0,0,0,0,0,0,0,58,43,0,0,3,2,2,6,1
662.0,0,0,0,0,0,0,0,0,0,0,0,0,58,43,0,0,4,2,1,6,1
663.0,0,0,0,0,0,0,0,0,0,0,0,0,59,43,0,0,4,2,1,5,1
664.0,0,0,0,0,0,0,0,0,0,0,0,0,59,43,0,0,4,2,1,5,0
665.0,0,0,0,0,0,0,0,0,0,0,0,0,59,43,0,1,3,2,0,5,1
666.0,0,0,0,0,0,0,0,0,0,0,0,0,58,44,0,3,1,1,0,6,1
667.0,0,0,0,0,0,0,0,0,0,0,0,1,58,44,0,3,1,0,0,6,1
668.0,0,0,0,0,0,0,0,0,0,0,0,1,59,43,0,3,1,1,0,5,0
669.0,0,0,0,0,0,0,0,0,0,0,0,1,59,43,0,3,1,1,0,5,0
670.0,0,0,0,0,0,0,0,0,0,0,0,1,59,43,0,4,0,1,0,5,0
671.0,0,0,0,0,0,0,0,0,0,0,0,1,58,44,0,3,1,1,0,5,0
672.0,0,0,0,0,0,0,0,0,0,0,0,0,58,43,0,3,1,1,0,7,0
673.0,0,0,0,0,0,0,0,0,0,0,0,0,58,43,0,3,1,2,0,6,0
674.0,0,0,0,0,0,0,0,0,0,0,0,0,58,43,0,3,1,2,0,6,0
675.0,0,0,0,0,0,0,0,0,0,0,0,0,58,43,0,2,1,2,0,6,1
676.0,0,0,0,0,0,0,0,0,0,0,1,0,57,44,0,2,1,1,0,6,1
677.0,0,0,0,0,0,0,0,0,0,0,1,0,58,43,0,2,1,1,1,5,1
678.0,0,0,0,0,0,0,0,0,0,0,1,0,58,43,0,2,1,1,1,5,0
679.0,0,0,0,0,0,0,0,0,0,0,1,0,58,43,0,2,0,1,1,5,1
680.0,0,0,0,0,0,0,0,0,0,0,1,0,58,43,0,1,0,1,1,5,2
681.0,0,0,0,0,0,0,0,0,0,0,0,0,58,43,0,1,1,1,1,5,2
682.0,0,0,0,0,0,0,0,0,0,0,1,0,58,43,0,1,1,0,2,4,1
683.0,0,0,0,0,0,0,0,0,0,0,1,0,58,43,0,1,1,0,2,4,1
684.0,0,0,0,0,0,0,0,0,0,0,1,0,58,43,0,2,1,0,1,4,0
685.0,0,0,0,0,0,0,0,0,0,0,1,0,58,43,0,2,1,0,1,4,0
686.0,0,0,0,0,0,0,0,0,0,0,0,0,58,42,0,1,2,1,1,4,1
687.0,0,0,0,0,0,0,0,0,0,0,0,0,58,42,0,1,2,2,1,3,1
688.0,0,0,0,0,0,0,0,0,0,0,0,0,58,42,0,1,2,2,1,3,1
689.0,0,0,0,0,0,0,0,0,0,0,0,0,58,42,0,2,2,2,0,3,0
690.0,0,0,0,0,0,0,0,0,0,0,0,0,58,42,0,2,2,2,0,3,0
691.0,0,0,0,0,0,0,0,0,0,0,0,0,58,41,0,1,3,2,0,4,0
692.0,0,0,0,0,0,0,0,0,0,0,0,0,57,41,0,1,3,3,1,3,0
693.0,0,0,0,0,0,0,0,0,0,0,0,0,57,41,0,2,2,3,1,3,0
694.0,0,0,0,0,0,0,0,0,0,0,0,0,57,42,0,2,2,2,1,3,0
695.0,0,0,0,0,0,0,0,0,0,0,1,0,57,42,0,1,3,1,0,3,1
696.0,0,0,0,0,0,0,0,0,0,0,1,0,56,42,0,1,3,2,0,3,1
697.0,0,0,0,0,0,0,0,0,0,0,2,0,56,42,0,1,3,2,0,2,1
698.0,0,0,0,0,0,0,0,0,0,0,2,0,56,42,0,2,2,2,0,2,0
699.0,0,0,0,0,0,0,0,0,0,0,2,0,56,42,0,2,1,2,0,2,1
700.0,0,0,0,0,0,0,0,0,0,0,2,0,56,42,0,1,1,2,0,2,2
701.0,0,0,0,0,0,0,0,0,0,0,1,0,56,42,0,1,1,2,1,2,2
702.0,0,0,0,0,0,0,0,0,0,0,1,0,56,42,0,1,1,3,1,1,1
703.0,0,0,0,0,0,0,0,0,0,0,0,0,56,42,0,1,1,3,2,1,0
704.0,0,0,0,0,0,0,0,0,0,0,0,1,56,42,0,1,1,2,1,1,1
705.0,0,0,0,0,0,0,0,0,0,0,0,1,56,42,0,1,2,2,0,1,1
706.0,0,0,0,0,0,0,0,0,0,0,0,1,56,41,0,1,2,2,0,2,1
707.0,0,0,0,0,0,0,0,0,0,0,0,1,56,41,0,1,2,2,1,1,1
708.0,0,0,0,0,0,0,0,0,0,0,0,0,56,41,0,1,2,2,1,2,0
709.0,0,0,0,0,0,0,0,0,0,0,0,0,56,41,0,1,2,2,1,2,0
710.0,0,0,0,0,0,0,0,0,0,0,0,0,56,41,0,0,3,1,0,3,1
711.0,0,0,0,0,0,0,0,0,0,0,1,0,56,41,0,0,3,1,0,2,1
712.0,0,0,0,0,0,0,0,0,0,0,1,0,56,41,0,1,2,1,0,2,1
713.0,0,0,0,0,0,0,0,0,0,0,1,0,56,41,0,2,1,1,0,2,0
714.0,0,0,0,0,0,0,0,0,0,0,1,0,56,41,0,2,1,1,0,2,0
715.0,0,0,0,0,0,0,0,0,0,0,1,0,55,42,0,2,1,1,0,2,0
716.0,0,0,0,0,0,0,0,0,0,0,2,0,55,41,0,2,1,2,0,1,0
717.0,0,0,0,0,0,0,0,0,0,0,1,0,55,41,0,1,1,2,1,1,1
718.0,0,0,0,0,0,0,0,0,0,0,1,0,55,41,0,1,1,2,1,1,1
719.0,0,0,0,0,0,0,0,0,0,0,2,0,55,41,0,2,1,1,0,1,1
720.0,0,0,0,0,0,0,0,0,0,0,2,0,55,41,0,2,1,1,0,1,0
721.0,0,0,0,0,0,0,0,0,0,0,2,0,54,41,0,2,1,2,1,0,0
722.0,0,0,0,0,0,0,0,0,0,0,2,0,54,40,0,1,1,3,1,0,1
723.0,0,0,0,0,0,0,0,0,0,0,2,0,54,40,0,1,2,3,0,0,1
724.0,0,0,0,0,0,0,0,0,0,0,2,0,54,40,0,1,2,3,0,0,0
725.0,0,0,0,0,0,0,0,0,0,0,1,0,53,41,0,1,2,2,1,1,0
726.0,0,0,0,0,0,0,0,0,0,0,0,0,53,41,0,0,2,2,2,1,1
727.0,0,0,0,0,0,0,0,0,0,0,0,0,54,40,0,0,2,2,2,1,1
728.0,0,0,0,0,0,0,0,0,0,0,0,0,54,40,0,1,2,1,1,2,1
729.0,0,0,0,0,0,0,0,0,0,0,0,0,54,40,0,2,2,1,1,1,0
730.0,0,0,0,0,0,0,0,0,0,0,0,0,54,40,0,2,2,1,1,1,0
731.0,0,0,0,0,0,0,0,0,0,0,0,0,53,40,0,2,2,2,1,1,0
732.0,0,0,0,0,0,0,0,0,0,0,0,0,53,39,0,3,2,2,0,2,0
733.0,0,0,0,0,0,0,0,0,0,0,0,0,53,39,0,2,2,2,0,2,1
734.0,0,0,0,0,0,0,0,0,0,0,0,0,53,40,0,2,2,2,0,1,1
735.0,0,0,0,0,0,0,0,0,0,0,0,0,53,40,0,2,2,2,0,1,1
736.0,0,0,0,0,0,0,0,0,0,0,0,0,52,40,0,2,2,3,0,1,0
737.0,0,0,0,0,0,0,0,0,0,0,0,0,52,40,0,3,1,3,0,1,0
738.0,0,0,0,0,0,0,0,0,0,0,1,0,53,39,0,2,2,2,0,1,0
739.0,0,0,0,0,0,0,0,0,0,0,1,0,53,39,0,3,1,2,0,1,0
740.0,0,0,0,0,0,0,0,0,0,0,1,0,53,39,0,3,1,2,0,1,0
741.0,0,0,0,0,0,0,0,0,0,0,1,0,52,39,0,3,1,2,0,2,0
742.0,0,0,0,0,0,0,0,0,0,0,1,0,52,39,0,3,1,2,0,2,0
743.0,0,0,0,0,0,0,0,0,0,0,1,0,53,38,0,2,1,2,1,1,1
744.0,0,0,0,0,0,0,0,0,0,0,1,0,53,38,0,2,1,2,1,1,1
745.0,0,0,0,0,0,0,0,0,0,0,1,1,52,38,0,2,1,2,1,1,1
746.0,0,0,0,0,0,0,0,0,0,0,1,1,52,39,0,2,0,1,1,1,1
747.0,0,0,0,0,0,0,0,0,0,0,1,1,52,38,0,2,1,1,0,2,1
748.0,0,0,0,0,0,0,0,0,0,0,1,1,52,38,0,1,1,1,0,2,2
749.0,0,0,0,0,0,0,0,0,0,0,1,1,52,38,0,1,1,0,1,2,1
750.0,0,0,0,0,0,0,0,0,0,0,1,0,51,38,0,1,1,1,1,3,0
751.0,0,0,0,0,0,0,0,0,0,0,1,0,51,38,0,1,1,1,1,3,0
752.0,0,0,0,0,0,0,0,0,0,0,1,0,51,38,0,2,1,1,0,3,0
753.0,0,0,0,0,0,0,0,0,0,0,1,0,52,37,0,1,1,1,0,3,1
754.0,0,0,0,0,0,0,0,0,0,0,0,0,52,37,0,1,1,2,1,2,1
755.0,0,0,0,0,0,0,0,0,0,0,0,0,51,38,0,2,0,2,1,2,0
756.0,0,0,0,0,0,0,0,0,0,0,0,0,51,38,0,2,0,2,1,2,0
757.0,0,0,0,0,0,0,0,0,0,0,0,0,51,38,0,2,1,2,0,2,0
758.0,0,0,0,0,0,0,0,0,0,0,0,0,52,37,0,1,2,1,0,3,0
759.0,0,0,0,0,0,0,0,0,0,0,0,0,52,37,0,2,2,1,0,2,0
760.0,0,0,0,0,0,0,0,0,0,0,0,0,52,37,0,2,2,1,0,2,0
761.0,0,0,0,0,0,0,0,0,0,0,0,0,51,38,0,2,2,1,0,2,0
762.0,0,0,0,0,0,0,0,0,0,0,1,0,51,38,0,2,2,0,0,2,0
763.0,0,0,0,0,0,0,0,0,0,0,1,0,52,37,0,1,2,0,0,2,1
764.0,0,0,0,0,0,0,0,0,0,0,1,0,52,37,0,1,2,1,0,1,1
765.0,0,0,0,0,0,0,0,0,0,0,1,0,51,37,0,2,1,2,0,1,1
766.0,0,0,0,0,0,0,0,0,0,0,0,0,51,37,0,2,1,2,1,1,0
767.0,0,0,0,0,0,0,0,0,0,0,0,0,51,37,0,2,0,2,1,1,1
768.0,0,0,0,0,0,0,0,0,0,0,0,0,52,36,0,1,1,2,1,1,1
769.0,0,0,0,0,0,0,0,0,0,0,0,0,52,36,0,2,1,2,1,0,1
770.0,0,0,0,0,0,0,0,0,0,0,0,0,51,37,0,2,1,2,1,0,0
771.0,0,0,0,0,0,0,0,0,0,0,1,0,51,37,0,2,1,1,1,0,0
772.0,0,0,0,0,0,0,0,0,0,0,1,0,52,36,0,2,2,1,0,0,0
773.0,0,0,0,0,0,0,0,0,0,0,1,0,52,36,0,1,2,1,0,0,1
774.0,0,0,0,0,0,0,0,0,0,0,1,0,52,37,0,1,2,0,0,0,1
775.0,0,0,0,0,0,0,0,0,0,0,1,0,52,37,0,1,1,0,0,0,2
776.0,0,0,0,0,0,0,0,0,0,0,0,0,51,37,0,1,1,1,1,0,1
777.0,0,0,0,0,0,0,0,0,0,0,0,0,51,36,0,1,1,2,1,0,1
778.0,0,0,0,0,0,0,0,0,0,0,0,0,51,36,0,0,2,2,1,0,0
779.0,0,0,0,0,0,0,0,0,0,0,0,0,51,36,0,0,2,2,1,0,0
780.0,0,0,0,0,0,0,0,0,0,0,0,0,51,36,0,1,2,2,0,0,0
781.0,0,0,0,0,0,0,0,0,0,0,0,0,50,37,0,2,1,2,0,0,0
782.0,0,0,0,0,0,0,0,0,0,0,0,0,50,36,0,2,1,2,1,0,0
783.0,0,0,0,0,0,0,0,0,0,0,0,0,50,36,0,2,1,2,1,0,0
784.0,0,0,0,0,0,0,0,0,0,0,0,0,50,36,0,2,1,1,1,1,0
785.0,0,0,0,0,0,0,0,0,0,0,0,0,49,36,0,1,3,1,0,2,0
786.0,0,0,0,0,0,0,0,0,0,0,0,0,49,36,0,1,3,1,0,2,0
787.0,0,0,0,0,0,0,0,0,0,0,0,0,49,35,0,1,2,2,0,2,1
788.0,0,0,0,0,0,0,0,0,0,0,0,0,49,35,0,1,2,2,0,2,1
789.0,0,0,0,0,0,0,0,0,0,0,0,0,49,35,0,0,2,2,0,2,2
790.0,0,0,0,0,0,0,0,0,0,0,1,0,48,35,0,0,2,3,0,1,1
791.0,0,0,0,0,0,0,0,0,0,0,1,0,48,35,0,0,2,3,0,1,1
792.0,0,0,0,0,0,0,0,0,0,0,2,0,48,34,0,0,1,3,0,1,1
793.0,0,0,0,0,0,0,0,0,0,0,2,0,48,34,0,1,0,3,0,1,1
794.0,0,0,0,0,0,0,0,0,0,0,2,0,47,35,0,1,0,3,0,1,1
795.0,0,0,0,0,0,0,0,0,0,0,2,0,47,35,0,1,0,2,1,1,0
796.0,0,0,0,0,0,0,0,0,0,0,2,0,47,35,0,1,0,2,1,1,0
797.0,0,0,0,0,0,0,0,0,0,0,2,0,47,34,0,1,0,2,2,1,0
798.0,0,0,0,0,0,0,0,0,0,0,1,0,47,35,0,1,0,2,1,1,1
799.0,0,0,0,0,0,0,0,0,0,0,1,0,46,35,0,1,0,3,1,1,1
800.0,0,0,0,0,0,0,0,0,0,0,1,0,46,35,0,1,1,3,1,0,1
801.0,0,0,0,0,0,0,0,0,0,0,1,0,46,35,0,1,1,3,1,0,0
802.0,0,0,0,0,0,0,0,0,0,0,1,0,46,34,0,1,1,3,1,1,0
803.0,0,0,0,0,0,0,0,0,0,0,1,0,46,34,0,2,1,2,0,2,0
804.0,0,0,0,0,0,0,0,0,0,0,0,0,45,35,0,1,2,2,1,2,0
805.0,0,0,0,0,0,0,0,0,0,0,0,0,45,35,0,1,2,2,1,2,0
806.0,0,0,0,0,0,0,0,0,0,0,0,0,45,35,0,1,2,2,1,2,0
807.0,0,0,0,0,0,0,0,0,0,0,1,0,45,34,0,1,2,3,1,1,0
808.0,0,0,0,0,0,0,0,0,0,0,1,0,45,34,0,1,3,3,0,1,0
809.0,0,0,0,0,0,0,0,0,0,0,1,0,44,34,0,1,3,3,0,2,0
810.0,0,0,0,0,0,0,0,0,0,0,2,0,44,34,0,1,3,2,0,2,0
811.0,0,0,0,0,0,0,0,0,0,0,1,0,44,34,0,1,2,2,1,2,1
812.0,0,0,0,0,0,0,0,0,0,0,2,0,44,33,0,1,2,3,1,1,1
813.0,0,0,0,0,0,0,0,0,0,0,2,0,44,33,0,0,2,3,1,1,2
814.0,0,0,0,0,0,0,0,0,0,0,2,0,43,34,0,0,2,3,1,1,2
815.0,0,0,0,0,0,0,0,0,0,0,1,0,43,34,0,0,3,3,1,1,1
816.0,0,0,0,0,0,0,0,0,0,0,1,0,43,34,0,1,2,3,1,1,1
817.0,0,0,0,0,0,0,0,0,0,0,1,0,43,33,0,1,1,4,2,0,1
818.0,0,0,0,0,0,0,0,0,0,0,2,0,43,33,0,1,2,2,1,1,1
819.0,0,0,0,0,0,0,0,0,0,0,2,0,42,34,0,1,2,2,1,1,1
820.0,0,0,0,0,0,0,0,0,0,0,2,0,42,34,0,1,3,2,0,1,0
821.0,0,0,0,0,0,0,0,0,0,0,2,0,42,34,0,0,3,2,0,1,1
822.0,0,0,0,0,0,0,0,0,0,0,2,0,42,33,0,0,3,3,0,1,1
823.0,0,0,0,0,0,0,0,0,0,0,2,0,41,33,0,1,2,4,1,0,1
824.0,0,0,0,0,0,0,0,0,0,0,1,0,41,34,0,1,2,4,1,0,0
825.0,0,0,0,0,0,0,0,0,0,0,1,0,41,34,0,1,2,4,1,0,0
826.0,0,0,0,0,0,0,0,0,0,0,1,0,41,34,0,1,3,3,0,1,0
827.0,0,0,0,0,0,0,0,0,0,0,1,0,41,33,0,2,2,3,0,2,0
828.0,0,0,0,0,0,0,0,0,0,0,1,0,41,33,0,2,1,3,0,2,1
829.0,0,0,0,0,0,0,0,0,0,0,0,0,40,33,0,2,1,4,1,2,1
830.0,0,0,0,0,0,0,0,0,0,0,0,0,40,33,0,2,1,4,1,2,1
831.0,0,0,0,0,0,0,0,0,0,0,1,0,40,33,0,2,1,4,1,1,1
832.0,0,0,0,0,0,0,0,0,0,0,1,0,40,32,0,2,2,5,0,1,0
833.0,0,0,0,0,0,0,0,0,0,0,1,0,40,32,0,2,2,5,0,1,0
834.0,0,0,0,0,0,0,0,0,0,0,2,0,39,33,0,2,1,4,0,1,1
835.0,0,0,0,0,0,0,0,0,0,0,2,0,39,33,0,2,1,3,0,2,1
836.0,0,0,0,0,0,0,0,0,0,0,2,0,39,33,0,2,2,3,0,1,1
837.0,0,0,0,0,0,0,0,0,0,0,3,0,39,32,0,2,2,3,0,1,0
838.0,0,0,0,0,0,0,0,0,0,0,3,0,39,32,0,2,2,3,0,1,0
839.0,0,0,0,0,0,0,0,0,0,0,2,0,38,33,0,1,2,4,0,1,1
840.0,0,0,0,0,0,0,0,0,0,0,2,0,38,33,0,1,2,4,0,1,1
841.0,0,0,0,0,0,0,0,0,0,0,2,0,38,32,0,2,1,5,0,1,1
842.0,0,0,0,0,0,0,0,0,0,0,2,0,38,32,0,2,2,4,1,0,0
843.0,0,0,0,0,0,0,0,0,0,0,3,0,38,32,0,2,1,3,2,0,0
844.0,0,0,0,0,0,0,0,0,0,0,3,0,37,32,0,1,1,4,2,0,1
845.0,0,0,0,0,0,0,0,0,0,0,3,0,37,32,0,1,2,4,1,0,1
846.0,0,0,0,0,0,0,0,0,0,0,2,0,37,32,0,2,2,4,1,0,1
847.0,0,0,0,0,0,0,0,0,0,0,2,0,37,31,0,2,2,4,2,0,1
848.0,0,0,0,0,0,0,0,0,0,0,2,0,37,31,0,2,2,4,2,0,0
849.0,0,0,0,0,0,0,0,0,0,0,1,0,36,32,0,1,2,5,2,0,1
850.0,0,0,0,0,0,0,0,0,0,0,1,0,36,32,0,1,3,4,1,1,1
851.0,0,0,0,0,0,0,0,0,0,0,0,0,36,32,0,1,3,4,1,2,1
852.0,0,0,0,0,0,0,0,0,0,0,0,0,36,31,0,1,3,5,1,2,0
853.0,0,0,0,0,0,0,0,0,0,0,0,0,36,31,0,2,2,5,0,2,1
854.0,0,0,0,0,0,0,0,0,0,0,0,0,35,31,0,2,2,6,0,2,1
855.0,0,0,0,0,0,0,0,0,0,0,1,0,35,31,0,2,2,6,0,1,1
856.0,0,0,0,0,0,0,0,0,0,0,1,0,35,31,0,2,2,6,0,1,0
857.0,0,0,0,0,0,0,0,0,0,0,2,0,35,30,0,2,2,6,0,1,0
858.0,0,0,0,0,0,0,0,0,0,0,3,0,35,30,0,3,1,5,0,1,0
859.0,0,0,0,0,0,0,0,0,0,0,3,0,34,30,0,3,0,6,0,1,1
860.0,0,0,0,0,0,0,0,0,0,0,3,0,34,30,0,3,0,6,1,0,1
861.0,0,0,0,0,0,0,0,0,0,0,3,0,34,30,0,3,0,6,1,0,1
862.0,0,0,0,0,0,0,0,0,0,0,2,0,34,29,0,3,0,7,1,1,0
863.0,0,0,0,0,0,0,0,0,0,0,1,0,34,30,0,3,1,7,0,1,0
864.0,0,0,0,0,0,0,0,0,0,0,1,0,33,30,0,2,1,8,0,1,1
865.0,0,0,0,0,0,0,0,0,0,0,0,0,33,31,0,2,1,8,0,1,1
866.0,0,0,0,0,0,0,0,0,0,0,0,0,33,32,0,2,1,6,1,1,1
867.0,0,0,0,0,0,0,0,0,0,0,0,0,33,32,0,2,1,6,1,1,0
868.0,0,0,0,0,0,0,0,0,0,0,0,0,33,31,0,2,1,7,2,0,0
869.0,0,0,0,0,0,0,0,0,0,0,1,0,32,31,0,1,2,7,1,0,1
870.0,0,0,0,0,0,0,0,0,0,0,1,0,32,31,0,1,2,7,1,0,1
871.0,0,0,0,0,0,0,0,0,0,0,1,0,32,31,0,2,2,7,0,0,1
872.0,0,0,0,0,0,0,0,0,0,0,1,0,32,31,0,2,2,7,0,0,0
873.0,0,0,0,0,0,0,0,0,0,0,2,0,31,31,0,2,2,7,0,0,0
874.0,0,0,0,0,0,0,0,0,0,0,1,0,31,30,0,2,2,6,1,2,0
875.0,0,0,0,0,0,0,0,0,0,0,1,0,31,30,0,1,2,6,1,2,1
876.0,0,0,0,0,0,0,0,0,0,0,1,0,31,30,0,2,1,6,1,2,1
877.0,0,0,0,0,0,0,0,0,0,0,1,0,31,30,0,2,2,6,0,2,0
878.0,0,0,0,0,0,0,0,0,0,0,1,0,30,30,0,2,2,7,0,2,0
879.0,0,0,0,0,0,0,0,0,0,0,2,0,30,29,0,2,2,8,0,1,0
880.0,0,0,0,0,0,0,0,0,0,0,2,0,30,29,0,2,1,8,0,1,1
881.0,0,0,0,0,0,0,0,0,0,0,2,0,30,29,0,2,1,8,0,1,1
882.0,0,0,0,0,0,0,0,0,0,0,2,0,30,29,0,2,1,8,0,1,1
883.0,0,0,0,0,0,0,0,0,0,0,2,0,30,29,0,3,0,6,0,3,0
884.0,0,0,0,0,0,0,0,0,0,0,1,0,29,28,0,3,0,8,2,2,0
885.0,0,0,0,0,0,0,0,0,0,0,1,0,29,28,0,2,0,8,2,2,1
886.0,0,0,0,0,0,0,0,0,0,0,1,0,29,28,0,2,0,8,2,2,1
887.0,0,0,0,0,0,0,0,0,0,0,1,0,29,28,0,2,1,8,1,2,1
888.0,0,0,0,0,0,0,0,0,0,0,1,0,28,28,0,2,2,9,0,2,0
889.0,0,0,0,0,0,0,0,0,0,0,2,0,28,28,0,2,2,9,0,1,0
890.0,0,0,0,0,0,0,0,0,0,0,3,0,28,27,0,1,3,8,0,1,1
891.0,0,0,0,0,0,0,0,0,0,0,3,0,28,27,0,1,3,8,0,1,1
892.0,0,0,0,0,0,0,0,0,0,0,3,0,28,27,0,1,3,8,0,1,1
893.0,0,0,0,0,0,0,0,0,0,0,3,0,28,27,0,1,3,8,1,0,0
894.0,0,0,0,0,0,0,0,0,0,0,4,0,27,27,0,1,3,8,1,0,0
895.0,0,0,0,0,0,0,0,0,0,0,3,0,27,26,0,1,2,8,1,2,1
896.0,0,0,0,0,0,0,0,0,0,0,3,0,27,26,0,2,2,8,0,2,1
897.0,0,0,0,0,0,0,0,0,0,0,3,0,27,26,0,2,2,8,0,2,1
898.0,0,0,0,0,0,0,0,0,0,0,1,0,27,26,0,2,3,9,0,2,1
899.0,0,0,0,0,0,0,0,0,0,0,1,0,26,26,0,2,2,8,2,3,0
900.0,0,0,0,0,0,0,0,0,0,0,0,0,26,25,0,1,2,10,2,3,1
901.0,0,0,0,0,0,0,0,0,0,0,0,0,26,25,0,1,2,10,2,3,1
902.0,0,0,0,0,0,0,0,0,0,0,0,0,26,25,0,2,2,10,1,3,1
903.0,0,0,0,0,0,0,0,0,0,0,0,0,26,25,0,2,3,10,0,3,0
904.0,0,0,0,0,0,0,0,0,0,0,1,0,25,25,0,3,2,10,1,2,0
905.0,0,0,0,0,0,0,0,0,0,0,1,0,25,25,0,2,2,10,1,2,1
906.0,0,0,0,0,0,0,0,0,0,0,1,0,25,24,0,2,1,10,2,3,1
907.0,0,0,0,0,0,0,0,0,0,0,1,0,25,24,0,2,2,9,1,4,1
908.0,0,0,0,0,0,0,0,0,0,0,1,0,25,24,0,2,2,8,1,5,0
909.0,0,0,0,0,0,0,0,0,0,0,1,0,24,24,0,3,2,10,0,4,0
910.0,0,0,0,0,0,0,0,0,0,0,1,0,24,24,0,3,1,10,0,4,1
911.0,0,0,0,0,0,0,0,0,0,0,1,0,24,23,0,3,1,11,0,4,1
912.0,0,0,0,0,0,0,0,0,0,0,1,0,24,23,0,3,1,11,0,4,1
913.0,0,0,0,0,0,0,0,0,0,0,0,0,23,23,0,3,1,12,1,4,0
914.0,0,0,0,0,0,0,0,0,0,0,0,0,23,23,0,3,2,11,1,4,0
915.0,0,0,0,0,0,0,0,0,0,0,0,0,23,23,0,2,2,10,1,5,1
916.0,0,0,0,0,0,0,0,0,0,0,0,0,23,22,0,3,2,10,0,6,1
917.0,0,0,0,0,0,0,0,0,0,0,0,0,23,22,0,3,2,10,0,6,1
918.0,0,0,0,0,0,0,0,0,0,0,1,0,22,22,0,3,2,11,0,5,0
919.0,0,0,0,0,0,0,0,0,0,0,1,0,22,22,0,3,2,11,0,5,0
920.0,0,0,0,0,0,0,0,0,0,0,1,0,22,22,0,2,2,11,0,5,1
921.0,0,0,0,0,0,0,0,0,0,0,1,0,22,21,0,2,2,12,0,5,1
922.0,0,0,0,0,0,0,0,0,0,0,0,0,22,21,0,2,2,11,1,6,1
923.0,0,0,0,0,0,0,0,0,0,0,1,0,22,21,0,2,1,10,2,6,0
924.0,0,0,0,0,0,0,0,0,0,0,1,0,21,21,0,2,1,11,2,6,0
925.0,0,0,0,0,0,0,0,0,0,0,1,0,21,21,0,2,1,11,1,6,1
926.0,0,0,0,0,0,0,0,0,0,0,1,0,21,20,0,3,1,12,0,6,1
927.0,0,0,0,0,0,0,0,0,0,0,1,0,21,20,0,3,1,12,0,6,1
928.0,0,0,0,0,0,0,0,0,0,0,0,0,20,20,0,3,1,13,2,5,0
929.0,0,0,0,0,0,0,0,0,0,0,0,0,20,20,0,2,1,13,2,5,1
930.0,0,0,0,0,0,0,0,0,0,0,0,0,20,20,0,2,1,13,2,5,1
931.0,0,0,0,0,0,0,0,0,0,0,0,0,20,19,0,2,3,12,0,7,1
932.0,0,0,0,0,0,0,0,0,0,0,0,0,20,19,0,2,3,12,0,7,0
933.0,0,0,0,0,0,0,0,0,0,0,1,0,19,19,0,2,2,13,0,6,1
934.0,0,0,0,0,0,0,0,0,0,0,1,0,19,19,0,2,2,13,0,6,1
935.0,0,0,0,0,0,0,0,0,0,0,2,0,19,18,0,2,2,13,0,6,1
936.0,0,0,0,0,0,0,0,0,0,0,2,0,19,18,0,2,2,13,0,6,0
937.0,0,0,0,0,0,0,0,0,0,0,2,0,19,18,0,2,2,13,0,6,0
938.0,0,0,0,0,0,0,0,0,0,0,2,0,18,18,0,1,2,14,0,6,1
939.0,0,0,0,0,0,0,0,0,0,0,2,0,18,18,0,1,3,13,1,5,1
940.0,0,0,0,0,0,0,0,0,0,0,2,0,18,17,0,3,1,12,1,7,1
941.0,0,0,0,0,0,0,0,0,0,0,1,0,18,17,0,3,2,12,1,7,0
942.0,0,0,0,0,0,0,0,0,0,0,1,0,18,17,0,3,2,12,1,7,0
943.0,0,0,0,0,0,0,0,0,0,0,1,0,17,17,0,3,3,13,0,7,0
944.0,0,0,0,0,0,0,0,0,0,0,1,0,17,17,0,2,3,13,1,6,1
945.0,0,0,0,0,0,0,0,0,0,0,1,0,17,16,0,2,3,14,1,6,1
946.0,0,0,0,0,0,0,0,0,0,0,1,0,17,16,0,2,3,13,1,7,1
947.0,0,0,0,0,0,0,0,0,0,0,1,0,17,16,0,2,3,13,1,7,0
948.0,0,0,0,0,0,0,0,0,0,0,2,0,16,16,0,2,3,13,1,7,0
949.0,0,0,0,0,0,0,0,0,0,0,1,0,16,16,0,3,2,13,1,7,1
950.0,0,0,0,0,0,0,0,0,0,0,1,0,16,16,0,3,2,13,1,7,1
951.0,0,0,0,0,0,0,0,0,0,0,1,0,16,15,0,3,3,14,0,7,1
952.0,0,0,0,0,0,0,0,0,0,0,1,0,16,15,0,4,2,14,0,7,0
953.0,0,0,0,0,0,0,0,0,0,0,0,0,15,15,0,4,3,15,0,7,0
954.0,0,0,0,0,0,0,0,0,0,0,1,0,15,15,0,4,3,15,0,6,0
955.0,0,0,0,0,0,0,0,0,0,0,1,0,15,15,0,4,2,13,0,8,1
956.0,0,0,0,0,0,0,0,0,0,0,1,0,15,14,0,4,2,14,0,8,1
957.0,0,0,0,0,0,0,0,0,0,0,1,0,14,14,0,4,2,15,0,8,0
958.0,0,0,0,0,0,0,0,0,0,0,0,0,14,14,0,5,1,15,1,8,0
959.0,0,0,0,0,0,0,0,0,0,0,0,0,14,14,0,5,1,15,2,7,0
960.0,0,0,0,0,0,0,0,0,0,0,0,0,14,14,0,4,1,15,2,7,1
961.0,0,0,0,0,0,0,0,0,0,0,0,0,14,13,0,4,0,15,3,8,1
962.0,0,0,0,0,0,0,0,0,0,0,0,0,14,13,0,4,2,15,1,8,1
963.0,0,0,0,0,0,0,0,0,0,0,0,0,13,13,0,4,2,15,1,9,0
964.0,0,0,0,0,0,0,0,0,0,0,0,0,13,13,0,4,2,14,0,10,1
965.0,0,0,0,0,0,0,0,0,0,0,1,0,13,13,0,4,2,14,0,9,1
966.0,0,0,0,0,0,0,0,0,0,0,1,0,13,13,0,4,2,14,0,9,1
967.0,0,0,0,0,0,0,0,0,0,0,1,0,13,12,0,4,2,15,0,9,1
968.0,0,0,0,0,0,0,0,0,0,0,1,0,12,12,0,4,2,15,0,10,0
969.0,0,0,0,0,0,0,0,0,0,0,1,0,12,12,0,4,1,15,0,10,1
970.0,0,0,0,0,0,0,0,0,0,0,1,0,12,12,0,4,1,15,1,9,1
971.0,0,0,0,0,0,0,0,0,0,0,1,0,12,11,0,5,0,15,1,10,1
972.0,0,0,0,0,0,0,0,0,0,0,2,0,12,11,0,5,0,14,1,10,0
973.0,0,0,0,0,0,0,0,0,0,0,2,0,11,11,0,5,1,15,0,10,0
974.0,0,0,0,0,0,0,0,0,0,0,3,0,11,11,0,4,1,15,0,9,1
975.0,0,0,0,0,0,0,0,0,0,0,2,0,11,11,0,4,1,15,1,9,1
976.0,0,0,0,0,0,0,0,0,0,0,2,0,11,10,0,4,1,15,1,10,1
977.0,0,0,0,0,0,0,0,0,0,0,1,0,11,10,0,4,1,15,2,10,1
978.0,0,0,0,0,0,0,0,0,0,0,1,0,11,10,0,4,2,14,1,11,0
979.0,0,0,0,0,0,0,0,0,0,0,2,0,10,10,0,4,2,14,1,11,0
980.0,0,0,0,0,0,0,0,0,0,0,1,0,10,10,0,4,2,14,1,11,1
981.0,0,0,0,0,0,0,0,0,0,0,1,0,10,9,0,4,2,15,1,11,1
982.0,0,0,0,0,0,0,0,0,0,0,1,0,10,9,0,4,3,15,0,11,1
983.0,0,0,0,0,0,0,0,0,0,0,1,0,9,9,0,4,3,16,0,11,0
984.0,0,0,0,0,0,0,0,0,0,0,0,1,9,9,0,3,3,16,1,10,1
985.0,0,0,0,0,0,0,0,0,0,0,0,1,9,9,0,4,2,16,1,10,1
986.0,0,0,0,0,0,0,0,0,0,0,0,1,9,8,0,4,2,16,1,11,1
987.0,0,0,0,0,0,0,0,0,0,0,0,1,9,8,0,4,3,16,0,11,0
988.0,0,0,0,0,0,0,0,0,0,0,0,1,8,8,0,5,2,15,0,13,0
989.0,0,0,0,0,0,0,0,0,0,0,1,1,8,8,0,4,2,15,0,12,1
990.0,0,0,0,0,0,0,0,0,0,0,1,0,8,8,0,5,2,15,0,12,1
991.0,0,0,0,0,0,0,0,0,0,0,1,0,8,8,0,5,2,15,0,12,1
992.0,0,0,0,0,0,0,0,0,0,0,1,0,8,7,0,5,2,15,0,13,0
993.0,0,0,0,0,0,0,0,0,0,0,0,0,7,7,0,4,2,15,1,14,1
994.0,0,0,0,0,0,0,0,0,0,0,1,0,7,7,0,4,2,15,1,13,1
995.0,0,0,0,0,0,0,0,0,0,0,1,0,7,7,0,5,1,15,1,13,1
996.0,0,0,0,0,0,0,0,0,0,0,1,0,7,7,0,5,2,15,0,13,0
997.0,0,0,0,0,0,0,0,0,0,0,1,0,7,6,0,5,2,15,0,14,0
998.0,0,0,0,0,0,0,0,0,0,0,1,0,6,6,0,5,1,14,1,16,0
999.0,0,0,0,0,0,0,0,0,0,0,1,0,6,6,0,4,1,14,2,15,1
1000.0,0,0,0,0,0,0,0,0,0,0,1,0,6,6,0,4,1,14,2,15,1
1001.0,0,0,0,0,0,0,0,0,0,0,1,0,6,5,0,5,1,13,1,17,1
1002.0,0,0,0,0,0,0,0,0,0,0,1,0,6,5,0,5,2,13,0,17,0
1003.0,0,0,0,0,0,0,0,0,0,0,0,0,6,5,0,5,2,13,2,16,0
1004.0,0,0,0,0,0,0,0,0,0,0,0,0,5,5,0,4,2,13,2,17,1
1005.0,0,0,0,0,0,0,0,0,0,0,0,0,5,5,0,5,1,13,2,17,1
1006.0,0,0,0,0,0,0,0,0,0,0,1,0,5,4,0,5,2,12,1,18,1
1007.0,0,0,0,0,0,0,0,0,0,0,1,0,5,4,0,5,2,12,1,18,0
1008.0,0,0,0,0,0,0,0,0,0,0,1,0,4,4,0,5,2,13,1,18,0
1009.0,0,0,0,0,0,0,0,0,0,0,1,0,4,4,0,5,2,12,2,18,0
1010.0,0,0,0,0,0,0,0,0,0,0,2,0,4,4,0,5,1,12,1,18,1
1011.0,0,0,0,0,0,0,0,0,0,0,1,0,4,3,0,5,2,12,1,19,1
1012.0,0,0,0,0,0,0,0,0,0,0,2,0,4,3,0,5,2,12,0,19,1
1013.0,0,0,0,0,0,0,0,0,0,0,2,0,3,3,0,5,2,12,0,20,0
1014.0,0,0,0,0,0,0,0,0,0,0,1,0,3,3,0,4,3,12,0,20,1
1015.0,0,0,0,0,0,0,0,0,0,0,1,0,3,3,0,5,2,12,0,20,1
1016.0,0,0,0,0,0,0,0,0,0,0,1,0,3,3,0,5,2,12,0,20,1
1017.0,0,0,0,0,0,0,0,0,0,0,0,0,2,2,0,5,3,13,0,21,1
1018.0,0,0,0,0,0,0,0,0,0,0,0,0,2,2,0,5,3,13,1,20,0
1019.0,0,0,0,0,0,0,0,0,0,0,0,0,2,2,0,5,2,12,1,21,1
1020.0,0,0,0,0,0,0,0,0,0,0,0,0,2,2,0,5,2,12,1,21,1
1021.0,0,0,0,0,0,0,0,0,0,0,1,0,2,2,0,5,2,11,0,22,1
1022.0,0,0,0,0,0,0,0,0,0,0,1,0,2,1,0,5,2,11,1,22,1
1023.0,0,0,0,0,0,0,0,0,0,0,1,0,1,1,0,6,1,11,1,23,0
1024.0,0,0,0,0,0,0,0,0,0,0,1,0,1,1,0,5,1,11,2,22,1
1025.0,0,0,0,0,0,0,0,0,0,0,1,0,1,1,0,6,1,11,1,22,1
1026.0,0,0,0,0,0,0,0,0,0,0,1,0,1,1,0,6,1,11,1,22,1
1027.0,0,0,0,0,0,0,0,0,0,0,0,0,0,0,0,6,3,10,0,25,0
1028.0,0,0,0,0,0,0,0,0,0,0,0,0,0,0,0,6,3,10,1,24,0
1029.0,0,0,0,0,0,0,0,0,0,0,0,0,0,0,0,6,3,9,1,25,0
1030.0,0,0,0,0,0,0,0,0,0,0,0,0,0,0,0,5,3,9,1,25,1
1031.0,0,0,0,0,0,0,0,0,0,0,1,0,0,0,0,5,3,9,0,25,1
1032.0,0,0,0,0,0,0,0,0,0,0,1,0,0,0,0,5,3,9,0,25,1
1033.0,0,0,0,0,0,0,0,0,0,0,1,0,0,0,0,7,1,9,1,24,0
1034.0,0,0,0,0,0,0,0,0,0,0,1,0,0,0,0,7,0,8,1,25,1
1035.0,0,0,0,0,0,0,0,0,0,0,1,0,0,0,0,7,0,8,1,25,1
1036.0,0,0,0,0,0,0,0,0,0,0,1,0,0,0,0,7,1,8,0,25,1
1037.0,0,0,0,0,0,0,0,0,0,0,1,0,0,0,0,7,1,7,0,26,0
1038.0,0,0,0,0,0,0,0,0,0,0,1,0,0,0,0,6,1,7,1,25,1
1039.0,0,0,0,0,0,0,0,0,0,0,1,0,0,0,0,6,1,7,1,25,1
1040.0,0,0,0,0,0,0,0,0,0,0,1,0,0,0,0,6,1,7,1,25,1
1041.0,0,0,0,0,0,0,0,0,0,0,1,0,0,0,0,6,2,6,1,25,0
1042.0,0,0,0,0,0,0,0,0,0,0,1,0,0,0,0,6,2,6,1,25,0
1043.0,0,0,0,0,0,0,0,0,0,0,1,0,0,0,0,5,2,7,1,24,1
1044.0,0,0,0,0,0,0,0,0,0,0,2,0,0,0,0,5,2,6,0,25,1
1045.0,0,0,0,0,0,0,0,0,0,0,2,0,0,0,0,6,1,6,0,25,1
1046.0,0,0,0,0,0,0,0,0,0,0,1,0,0,0,0,6,2,6,0,25,0
1047.0,0,0,0,0,0,0,0,0,0,0,1,0,0,0,0,6,2,6,0,25,0
1048.0,0,0,0,0,0,0,0,0,0,0,1,0,0,0,0,6,1,6,1,24,1
1049.0,0,0,0,0,0,0,0,0,0,0,0,0,0,0,0,6,2,5,1,25,1
1050.0,0,0,0,0,0,0,0,0,0,0,0,0,0,0,0,6,2,5,1,25,1
1051.0,0,0,0,0,0,0,0,0,0,0,0,0,0,0,0,6,3,5,0,25,0
1052.0,0,0,0,0,0,0,0,0,0,0,0,0,0,0,0,6,3,4,0,26,0
1053.0,0,0,0,0,0,0,0,0,0,0,0,0,0,0,0,5,3,5,0,25,1
1054.0,0,0,0,0,0,0,0,0,0,0,0,0,0,0,0,6,2,5,0,25,1
1055.0,0,0,0,0,0,0,0,0,0,0,0,0,0,0,0,6,2,5,0,25,1
1056.0,0,0,0,0,0,0,0,0,0,0,0,0,0,0,0,7,1,5,0,25,0
1057.0,0,0,0,0,0,0,0,0,0,0,0,0,0,0,0,7,1,4,1,25,0
1058.0,0,0,0,0,0,0,0,0,0,0,1,0,0,0,0,6,0,4,2,24,1
1059.0,0,0,0,0,0,0,0,0,0,0,1,0,0,0,0,6,0,4,2,24,1
1060.0,0,0,0,0,0,0,0,0,0,0,2,0,0,0,0,6,0,3,2,24,1
1061.0,0,0,0,0,0,0,0,0,0,0,3,0,0,0,0,6,0,3,1,24,0
1062.0,0,0,0,0,0,0,0,0,0,0,3,0,0,0,0,6,0,3,1,24,0
1063.0,0,0,0,0,0,0,0,0,0,0,3,0,0,0,0,6,0,3,1,23,1
1064.0,0,0,0,0,0,0,0,0,0,0,3,0,0,0,0,6,0,2,2,23,1
1065.0,0,0,0,0,0,0,0,0,0,0,2,0,0,0,0,6,1,2,2,23,1
1066.0,0,0,0,0,0,0,0,0,0,0,1,0,0,0,0,6,2,2,2,23,0
1067.0,0,0,0,0,0,0,0,0,0,0,1,0,0,0,0,6,4,1,1,23,0
1068.0,0,0,0,0,0,0,0,0,0,0,0,0,0,0,0,5,5,1,1,23,1
1069.0,0,0,0,0,0,0,0,0,0,0,0,0,0,0,0,5,5,1,2,22,1
1070.0,0,0,0,0,0,0,0,0,0,0,0,0,0,0,0,5,6,1,1,22,0
1071.0,0,0,0,0,0,0,0,0,0,0,0,0,0,0,0,5,6,1,1,22,0
1072.0,0,0,0,0,0,0,0,0,0,0,0,0,0,0,0,5,7,1,0,22,0
1073.0,0,0,0,0,0,0,0,0,0,0,0,0,0,0,0,5,6,0,1,22,1
1074.0,0,0,0,0,0,0,0,0,0,0,0,0,0,0,0,6,5,1,1,21,1
1075.0,0,0,0,0,0,0,0,0,0,0,1,0,0,0,0,7,3,1,1,21,1
1076.0,0,0,0,0,0,0,0,0,0,0,1,0,0,0,0,7,4,1,0,21,0
1077.0,0,0,0,0,0,0,0,0,0,0,1,0,0,0,0,7,4,1,0,21,0
1078.0,0,0,0,0,0,0,0,0,0,0,1,0,0,0,0,6,4,1,0,21,1
1079.0,0,0,0,0,0,0,0,0,0,0,1,0,0,0,0,6,4,1,1,20,1
1080.0,0,0,0,0,0,0,0,0,0,0,1,0,0,0,0,7,3,1,1,20,1
1081.0,0,0,0,0,0,0,0,0,0,0,0,0,0,0,0,8,4,1,0,20,1
1082.0,0,0,0,0,0,0,0,0,0,0,3,0,0,0,0,8,2,0,0,20,0
1083.0,0,0,0,0,0,0,0,0,0,0,3,0,0,0,0,7,2,1,0,19,1
1084.0,0,0,0,0,0,0,0,0,0,0,3,0,0,0,0,7,2,1,0,19,1
1085.0,0,0,0,0,0,0,0,0,0,0,3,0,0,0,0,7,2,1,0,19,1
1086.0,0,0,0,0,0,0,0,0,0,0,3,0,0,0,0,7,2,1,0,19,0
1087.0,0,0,0,0,0,0,0,0,0,0,0,0,0,0,0,10,2,1,0,19,0
1088.0,0,0,0,0,0,0,0,0,0,0,1,0,0,0,0,10,2,1,0,18,0
1089.0,0,0,0,0,0,0,0,0,0,0,1,0,0,0,0,9,2,1,0,18,1
1090.0,0,0,0,0,0,0,0,0,0,0,1,0,0,0,0,9,2,1,0,18,1
1091.0,0,0,0,0,0,0,0,0,0,0,1,0,0,0,0,9,1,0,2,18,0
1092.0,0,0,0,0,0,0,0,0,0,0,1,0,0,0,0,9,1,0,2,18,0
1093.0,0,0,0,0,0,0,0,0,0,0,0,0,0,0,0,9,1,0,3,17,1
1094.0,0,0,0,0,0,0,0,0,0,0,1,0,0,0,0,9,2,0,1,17,1
1095.0,0,0,0,0,0,0,0,0,0,0,1,0,0,0,0,9,2,0,1,17,1
1096.0,0,0,0,0,0,0,0,0,0,0,2,0,0,0,0,9,1,0,1,17,0
1097.0,0,0,0,0,0,0,0,0,0,0,2,0,0,0,0,9,2,0,0,17,0
1098.0,0,0,0,0,0,0,0,0,0,0,2,0,0,0,0,8,3,0,0,16,1
1099.0,0,0,0,0,0,0,0,0,0,0,1,0,0,0,0,9,3,0,0,16,1
1100.0,0,0,0,0,0,0,0,0,0,0,1,0,0,0,0,9,3,0,0,16,1
1101.0,0,0,0,0,0,0,0,0,0,0,1,0,0,0,0,9,2,0,1,16,0
1102.0,0,0,0,0,0,0,0,0,0,0,1,0,0,0,0,9,2,0,1,16,0
1103.0,0,0,0,0,0,0,0,0,0,0,1,0,0,0,0,10,2,0,1,15,0
1104.0,0,0,0,0,0,0,0,0,0,0,1,0,0,0,0,9,2,1,0,15,1
1105.0,0,0,0,0,0,0,0,0,0,0,1,0,0,0,0,9,2,1,0,15,1
1106.0,0,0,0,0,0,0,0,0,0,0,0,0,0,0,0,10,2,1,0,15,0
1107.0,0,0,0,0,0,0,0,0,0,0,0,0,0,0,0,10,1,1,1,15,0
1108.0,0,0,0,0,0,0,0,0,0,0,0,0,0,0,0,9,2,1,1,14,1
1109.0,0,0,0,0,0,0,0,0,0,0,0,0,0,0,0,9,2,1,1,14,1
1110.0,0,0,0,0,0,0,0,0,0,0,1,0,0,0,0,9,2,1,0,14,1
1111.0,0,0,0,0,0,0,0,0,0,0,1,0,0,0,0,10,1,0,1,14,0
1112.0,0,0,0,0,0,0,0,0,0,0,1,0,0,0,0,10,1,0,1,14,0
1113.0,0,0,0,0,0,0,0,0,0,0,1,0,0,0,0,9,2,0,1,13,1
1114.0,0,0,0,0,0,0,0,0,0,0,1,0,0,0,0,10,2,0,0,13,1
1115.0,0,0,0,0,0,0,0,0,0,0,1,0,0,0,0,11,1,0,0,13,1
1116.0,0,0,0,0,0,0,0,0,0,0,1,0,0,0,0,11,1,0,0,13,0
1117.0,0,0,0,0,0,0,0,0,0,0,1,0,0,0,0,11,2,0,0,12,0
1118.0,0,0,0,0,0,0,0,0,0,0,1,0,0,0,0,10,2,0,0,12,1
1119.0,0,0,0,0,0,0,0,0,0,0,1,0,0,0,0,10,2,0,0,12,1
1120.0,0,0,0,0,0,0,0,0,0,0,1,0,0,0,0,10,1,0,1,12,1
1121.0,0,0,0,0,0,0,0,0,0,0,0,0,0,0,0,10,1,0,2,12,0
1122.0,0,0,0,0,0,0,0,0,0,0,1,0,0,0,0,10,1,0,1,12,0
1123.0,0,0,0,0,0,0,0,0,0,0,1,0,0,0,0,9,2,0,1,11,1
1124.0,0,0,0,0,0,0,0,0,0,0,1,0,0,0,0,9,2,1,0,11,1
1125.0,0,0,0,0,0,0,0,0,0,0,1,0,0,0,0,9,2,1,0,11,1
1126.0,0,0,0,0,0,0,0,0,0,0,1,0,0,0,0,9,1,1,1,11,0
1127.0,0,0,0,0,0,0,0,0,0,0,0,0,0,0,0,10,1,1,1,11,0
1128.0,0,0,0,0,0,0,0,0,0,0,0,0,0,0,0,9,2,1,1,10,1
1129.0,0,0,0,0,0,0,0,0,0,0,0,0,0,0,0,10,2,1,0,10,1
1130.0,0,0,0,0,0,0,0,0,0,0,0,0,0,0,0,10,1,1,1,10,1
1131.0,0,0,0,0,0,0,0,0,0,0,0,0,0,0,0,10,1,1,1,10,0
1132.0,0,0,0,0,0,0,0,0,0,0,0,0,0,0,0,10,1,0,1,10,1
1133.0,0,0,0,0,0,0,0,0,0,0,0,0,0,0,0,10,2,0,1,9,1
1134.0,0,0,0,0,0,0,0,0,0,0,1,0,0,0,0,10,2,0,0,9,1
1135.0,0,0,0,0,0,0,0,0,0,0,1,0,0,0,0,10,2,0,0,9,0
1136.0,0,0,0,0,0,0,0,0,0,0,1,0,0,0,0,10,1,0,1,9,0
1137.0,0,0,0,0,0,0,0,0,0,0,1,0,0,0,0,9,1,0,1,9,1
1138.0,0,0,0,0,0,0,0,0,0,0,0,1,0,0,0,9,1,0,1,9,1
1139.0,0,0,0,0,0,0,0,0,0,0,1,1,0,0,0,9,1,0,1,8,1
1140.0,0,0,0,0,0,0,0,0,0,0,1,1,0,0,0,9,1,0,1,8,1
1141.0,0,0,0,0,0,0,0,0,0,0,1,1,0,0,0,9,0,0,2,8,0
1142.0,0,0,0,0,0,0,0,0,0,0,1,1,0,0,0,8,1,0,1,8,1
1143.0,0,0,0,0,0,0,0,0,0,0,1,0,0,0,0,9,2,0,1,7,1
1144.0,0,0,0,0,0,0,0,0,0,0,1,0,0,0,0,10,2,0,0,7,1
1145.0,0,0,0,0,0,0,0,0,0,0,1,0,0,0,0,10,2,0,0,7,0
1146.0,0,0,0,0,0,0,0,0,0,0,1,0,0,0,0,10,2,0,0,7,0
1147.0,0,0,0,0,0,0,0,0,0,0,1,0,0,0,0,9,2,0,0,7,1
1148.0,0,0,0,0,0,0,0,0,0,0,1,0,0,0,0,9,3,0,0,6,1
1149.0,0,0,0,0,0,0,0,0,0,0,1,0,0,0,0,9,2,1,0,6,0
1150.0,0,0,0,0,0,0,0,0,0,0,1,0,0,0,0,9,2,1,0,6,0
1151.0,0,0,0,0,0,0,0,0,0,0,1,0,0,0,0,9,2,1,0,6,0
1152.0,0,0,0,0,0,0,0,0,0,0,1,0,0,0,0,8,1,1,1,6,1
1153.0,0,0,0,0,0,0,0,0,0,0,1,0,0,0,0,8,2,1,1,5,1
1154.0,0,0,0,0,0,0,0,0,0,0,0,0,0,0,0,9,2,1,1,5,0
1155.0,0,0,0,0,0,0,0,0,0,0,2,0,0,0,0,9,1,1,0,5,0
1156.0,0,0,0,0,0,0,0,0,0,0,2,0,0,0,0,8,1,1,0,5,1
1157.0,0,0,0,0,0,0,0,0,0,0,2,0,0,0,0,8,1,1,0,5,1
1158.0,0,0,0,0,0,0,0,0,0,0,2,0,0,0,0,9,1,0,1,4,1
1159.0,0,0,0,0,0,0,0,0,0,0,2,0,0,0,0,9,1,0,1,4,0
1160.0,0,0,0,0,0,0,0,0,0,0,1,0,0,0,0,9,1,0,2,4,0
1161.0,0,0,0,0,0,0,0,0,0,0,0,0,0,0,0,9,2,0,1,4,1
1162.0,0,0,0,0,0,0,0,0,0,0,0,0,0,0,0,9,1,1,1,4,1
1163.0,0,0,0,0,0,0,0,0,0,0,0,0,0,0,0,9,1,1,1,4,1
1164.0,0,0,0,0,0,0,0,0,0,0,0,0,0,0,0,9,1,1,2,3,0
1165.0,0,0,0,0,0,0,0,0,0,0,1,0,0,0,0,9,1,1,1,3,0
1166.0,0,0,0,0,0,0,0,0,0,0,1,0,0,0,0,8,1,1,1,3,1
1167.0,0,0,0,0,0,0,0,0,0,0,1,0,0,0,0,8,2,1,0,3,1
1168.0,0,0,0,0,0,0,0,0,0,0,1,0,0,0,0,8,2,1,0,3,1
1169.0,0,0,0,0,0,0,0,0,0,0,1,0,0,0,0,9,1,1,0,3,0
1170.0,0,0,0,0,0,0,0,0,0,0,1,0,0,0,0,9,1,0,1,2,1
1171.0,0,0,0,0,0,0,0,0,0,0,1,0,0,0,0,9,1,0,1,2,1
1172.0,0,0,0,0,0,0,0,0,0,0,1,0,0,0,0,9,1,0,1,2,1
1173.0,0,0,0,0,0,0,0,0,0,0,0,0,0,0,0,10,2,0,0,2,0
1174.0,0,0,0,0,0,0,0,0,0,0,0,0,0,0,0,10,3,0,0,1,0
1175.0,0,0,0,0,0,0,0,0,0,0,1,0,0,0,0,9,2,0,0,1,1
1176.0,0,0,0,0,0,0,0,0,0,0,1,0,0,0,0,9,2,0,0,1,1
1177.0,0,0,0,0,0,0,0,0,0,0,1,0,0,0,0,9,2,0,0,1,1
1178.0,0,0,0,0,0,0,0,0,0,0,1,0,0,0,0,9,3,0,0,0,1
1179.0,0,0,0,0,0,0,0,0,0,0,1,0,0,0,0,9,3,0,0,0,0
1180.0,0,0,0,0,0,0,0,0,0,0,0,0,0,0,0,9,3,0,0,0,1
1181.0,0,0,0,0,0,0,0,0,0,0,0,0,0,0,0,9,3,0,0,0,1
1182.0,0,0,0,0,0,0,0,0,0,0,1,0,0,0,0,9,2,0,0,0,1
1183.0,0,0,0,0,0,0,0,0,0,0,2,0,0,0,0,9,1,0,0,0,0
1184.0,0,0,0,0,0,0,0,0,0,0,2,0,0,0,0,9,1,0,0,0,0
1185.0,0,0,0,0,0,0,0,0,0,0,2,0,0,0,0,8,1,0,0,0,1
1186.0,0,0,0,0,0,0,0,0,0,0,2,0,0,0,0,8,0,0,1,0,1
1187.0,0,0,0,0,0,0,0,0,0,0,2,0,0,0,0,8,0,0,1,0,1
1188.0,0,0,0,0,0,0,0,0,0,0,0,0,0,0,0,9,0,0,2,0,0
1189.0,0,0,0,0,0,0,0,0,0,0,0,0,0,0,0,9,0,0,1,0,1
1190.0,0,0,0,0,0,0,0,0,0,0,0,0,0,0,0,9,0,0,1,0,1
1191.0,0,0,0,0,0,0,0,0,0,0,0,0,0,0,0,10,0,0,0,0,1
1192.0,0,0,0,0,0,0,0,0,0,0,0,0,0,0,0,10,0,0,0,0,0
1193.0,0,0,0,0,0,0,0,0,0,0,0,0,0,0,0,10,0,0,0,0,0
1194.0,0,0,0,0,0,0,0,0,0,0,0,0,0,0,0,10,0,0,0,0,0
1195.0,0,0,0,0,0,0,0,0,0,0,0,0,0,0,0,9,0,0,0,0,1
1196.0,0,0,0,0,0,0,0,0,0,0,0,0,0,0,0,9,0,0,0,0,1
1197.0,0,0,0,0,0,0,0,0,0,0,0,0,0,0,0,9,0,0,0,0,1
1198.0,0,0,0,0,0,0,0,0,0,0,0,0,0,0,0,9,0,0,0,0,0
1199.0,0,0,0,0,0,0,0,0,0,0,0,0,0,0,0,9,0,0,0,0,0
1200.0,0,0,0,0,0,0,0,0,0,0,0,0,0,0,0,8,0,0,0,0,1
1201.0,0,0,0,0,0,0,0,0,0,0,0,0,0,0,0,8,0,0,0,0,1
1202.0,0,0,0,0,0,0,0,0,0,0,0,0,0,0,0,8,0,0,0,0,1
1203.0,0,0,0,0,0,0,0,0,0,0,0,0,0,0,0,8,0,0,0,0,1
1204.0,0,0,0,0,0,0,0,0,0,0,0,0,0,0,0,8,0,0,0,0,0
1205.0,0,0,0,0,0,0,0,0,0,0,0,0,0,0,0,7,0,0,0,0,1
1206.0,0,0,0,0,0,0,0,0,0,0,0,0,0,0,0,7,0,0,0,0,1
1207.0,0,0,0,0,0,0,0,0,0,0,0,0,0,0,0,7,0,0,0,0,1
1208.0,0,0,0,0,0,0,0,0,0,0,0,0,0,0,0,7,0,0,0,0,0
1209.0,0,0,0,0,0,0,0,0,0,0,0,0,0,0,0,7,0,0,0,0,0
1210.0,0,0,0,0,0,0,0,0,0,0,0,0,0,0,0,6,0,0,0,0,1
1211.0,0,0,0,0,0,0,0,0,0,0,0,0,0,0,0,6,0,0,0,0,1
1212.0,0,0,0,0,0,0,0,0,0,0,0,0,0,0,0,6,0,0,0,0,1
1213.0,0,0,0,0,0,0,0,0,0,0,0,0,0,0,0,6,0,0,0,0,1
1214.0,0,0,0,0,0,0,0,0,0,0,0,0,0,0,0,6,0,0,0,0,0
1215.0,0,0,0,0,0,0,0,0,0,0,0,0,0,0,0,6,0,0,0,0,0
1216.0,0,0,0,0,0,0,0,0,0,0,0,0,0,0,0,5,0,0,0,0,1
1217.0,0,0,0,0,0,0,0,0,0,0,0,0,0,0,0,5,0,0,0,0,1
1218.0,0,0,0,0,0,0,0,0,0,0,0,0,0,0,0,5,0,0,0,0,1
1219.0,0,0,0,0,0,0,0,0,0,0,0,0,0,0,0,5,0,0,0,0,0
1220.0,0,0,0,0,0,0,0,0,0,0,0,0,0,0,0,5,0,0,0,0,0
1221.0,0,0,0,0,0,0,0,0,0,0,0,0,0,0,0,4,0,0,0,0,1
1222.0,0,0,0,0,0,0,0,0,0,0,0,0,0,0,0,4,0,0,0,0,1
1223.0,0,0,0,0,0,0,0,0,0,0,0,0,0,0,0,4,0,0,0,0,1
1224.0,0,0,0,0,0,0,0,0,0,0,0,0,0,0,0,4,0,0,0,0,0
1225.0,0,0,0,0,0,0,0,0,0,0,0,0,0,0,0,4,0,0,0,0,0
1226.0,0,0,0,0,0,0,0,0,0,0,0,0,0,0,0,4,0,0,0,0,0
1227.0,0,0,0,0,0,0,0,0,0,0,0,0,0,0,0,3,0,0,0,0,1
1228.0,0,0,0,0,0,0,0,0,0,0,0,0,0,0,0,3,0,0,0,0,1
1229.0,0,0,0,0,0,0,0,0,0,0,0,0,0,0,0,3,0,0,0,0,1
1230.0,0,0,0,0,0,0,0,0,0,0,0,0,0,0,0,3,0,0,0,0,0
1231.0,0,0,0,0,0,0,0,0,0,0,0,0,0,0,0,2,0,0,0,0,1
1232.0,0,0,0,0,0,0,0,0,0,0,0,0,0,0,0,2,0,0,0,0,1
1233.0,0,0,0,0,0,0,0,0,0,0,0,0,0,0,0,2,0,0,0,0,1
1234.0,0,0,0,0,0,0,0,0,0,0,0,0,0,0,0,2,0,0,0,0,0
1235.0,0,0,0,0,0,0,0,0,0,0,0,0,0,0,0,2,0,0,0,0,0
1236.0,0,0,0,0,0,0,0,0,0,0,0,0,0,0,0,1,0,0,0,0,1
1237.0,0,0,0,0,0,0,0,0,0,0,0,0,0,0,0,1,0,0,0,0,1
1238.0,0,0,0,0,0,0,0,0,0,0,0,0,0,0,0,1,0,0,0,0,1
1239.0,0,0,0,0,0,0,0,0,0,0,0,0,0,0,0,1,0,0,0,0,0
1240.0,0,0,0,0,0,0,0,0,0,0,0,0,0,0,0,1,0,0,0,0,0
1241.0,0,0,0,0,0,0,0,0,0,0,0,0,0,0,0,0,0,0,0,0,1
1242.0,0,0,0,0,0,0,0,0,0,0,0,0,0,0,0,0,0,0,0,0,1
1243.0,0,0,0,0,0,0,0,0,0,0,0,0,0,0,0,0,0,0,0,0,1
