Time,Registration,Payment,Get Triage Number,Measure Vital Signs,General Medicine Examination,Eye Examination,ENT Examination,Dental Examination,Gynecological Examination,Breast Examination,Blood Test,Urine Test,In-depth Eye Examination,ENT Endoscopy,Electrocardiogram (ECG),Post-bronchodilator Spirometry,General Ultrasound,Cardiac Ultrasound,Chest X-ray,DEXA Bone Density Scan,Conclusion
0.0,0,0,0,0,0,0,0,0,0,0,0,0,0,0,0,0,0,0,0,0,0
1.0,3,0,0,0,0,0,0,0,0,0,0,0,0,0,0,0,0,0,0,0,0
2.0,2,1,0,0,0,0,0,0,0,0,0,0,0,0,0,0,0,0,0,0,0
3.0,0,3,0,0,0,0,0,0,0,0,0,0,0,0,0,0,0,0,0,0,0
4.0,1,2,1,0,0,0,0,0,0,0,0,0,0,0,0,0,0,0,0,0,0
5.0,1,1,1,1,0,0,0,0,0,0,0,0,0,0,0,0,0,0,0,0,0
6.0,1,1,1,2,0,0,0,0,0,0,0,0,0,0,0,0,0,0,0,0,0
7.0,1,0,2,1,1,0,0,0,0,0,0,0,0,0,0,0,0,0,0,0,0
8.0,0,1,1,1,2,0,0,0,0,0,0,0,0,0,0,0,0,0,0,0,0
9.0,1,1,0,2,2,0,0,0,0,0,0,0,0,0,0,0,0,0,0,0,0
10.0,1,0,1,1,2,0,0,1,0,0,0,0,0,0,0,0,0,0,0,0,0
11.0,0,1,0,1,2,0,0,2,0,0,0,0,0,0,0,0,0,0,0,0,0
12.0,0,1,0,1,2,0,0,2,0,0,0,0,0,0,0,0,0,0,0,0,0
13.0,0,0,1,0,1,1,0,3,0,0,0,0,0,0,0,0,0,0,0,0,0
14.0,0,0,0,1,1,1,0,3,0,0,0,0,0,0,0,0,0,0,0,0,0
15.0,0,0,0,1,1,2,0,2,0,0,0,0,0,0,0,0,0,0,0,0,0
16.0,0,0,0,0,1,2,1,2,0,0,0,0,0,0,0,0,0,0,0,0,0
17.0,1,0,0,0,1,3,1,1,0,0,0,0,0,0,0,0,0,0,0,0,0
18.0,2,0,0,0,0,2,2,2,0,0,0,0,0,0,0,0,0,0,0,0,0
19.0,2,1,0,0,0,2,2,1,0,0,0,0,0,0,0,0,1,0,0,0,0
20.0,1,2,0,0,0,2,2,1,0,0,0,0,0,0,0,0,1,0,0,0,0
21.0,2,3,0,0,0,2,2,0,0,0,0,0,0,0,0,0,2,0,0,0,0
22.0,1,3,1,0,0,1,2,0,0,0,0,0,0,0,0,0,3,0,0,0,0
23.0,2,3,1,1,0,1,2,0,0,0,0,0,0,0,0,0,3,0,0,0,0
24.0,1,3,0,3,0,1,1,0,0,0,0,0,0,0,0,0,4,0,0,0,0
25.0,0,3,1,2,1,0,2,0,0,0,0,0,0,0,0,0,4,0,0,0,0
26.0,2,2,1,1,3,0,1,0,0,1,0,0,0,0,0,0,4,0,0,0,0
27.0,1,2,1,2,3,0,1,0,0,1,0,0,0,0,0,0,4,0,0,0,0
28.0,0,2,1,1,3,0,0,2,0,1,0,1,0,0,0,0,4,0,0,0,0
29.0,3,1,1,2,2,0,0,3,0,1,0,3,0,0,0,0,2,0,0,0,0
30.0,3,0,1,2,3,0,0,3,0,1,0,3,0,0,0,0,2,0,0,0,0
31.0,1,2,0,2,2,2,0,3,0,0,0,3,0,0,1,0,2,0,0,0,0
32.0,0,3,0,2,1,2,0,4,0,0,0,3,0,0,1,0,2,0,0,0,0
33.0,2,1,2,0,3,2,0,4,0,0,0,3,0,0,2,0,1,0,0,0,0
34.0,2,1,1,1,2,2,2,3,0,0,0,2,0,0,3,0,1,0,0,0,0
35.0,0,2,1,2,1,2,2,4,0,0,0,2,0,0,2,0,2,0,0,0,0
36.0,0,1,1,2,1,2,2,5,0,0,0,3,0,0,2,0,1,0,0,0,0
37.0,0,0,1,2,2,2,2,3,1,0,0,2,0,2,1,0,2,0,0,0,0
38.0,0,0,0,2,3,2,2,3,1,0,0,2,0,2,1,0,2,0,0,0,0
39.0,1,0,0,1,3,2,2,4,1,0,0,1,1,2,1,0,2,0,0,0,0
40.0,2,0,0,1,2,3,2,3,1,0,0,1,1,2,1,0,3,0,0,0,0
41.0,1,1,0,0,2,2,2,4,2,0,0,0,1,3,1,0,3,0,0,0,0
42.0,0,2,0,0,2,2,2,4,2,0,0,0,1,3,1,0,3,0,0,0,0
43.0,1,2,0,0,1,1,3,4,3,0,1,0,1,4,0,0,2,0,0,0,0
44.0,2,0,1,1,0,2,2,4,2,2,1,0,0,5,0,0,2,0,0,0,0
45.0,1,1,0,2,0,2,2,4,2,2,1,0,0,6,0,0,1,0,0,0,0
46.0,2,2,0,2,0,3,2,2,2,2,1,0,0,6,0,0,2,0,0,0,0
47.0,3,1,1,0,2,2,2,2,2,3,1,1,1,5,0,0,1,0,0,0,0
48.0,1,2,1,1,2,2,2,2,1,4,0,1,2,5,0,0,1,0,0,0,0
49.0,1,3,0,2,2,2,2,1,1,3,0,2,2,5,1,0,1,0,0,0,0
50.0,1,1,2,1,1,2,2,2,1,2,0,2,2,5,2,0,2,0,0,0,0
51.0,0,2,1,1,2,2,2,2,1,2,0,2,2,5,2,0,2,0,0,0,0
52.0,1,1,1,2,2,1,2,2,0,3,0,1,2,4,3,0,3,0,0,1,0
53.0,1,0,1,2,2,2,2,1,0,3,0,2,2,4,3,0,3,0,0,1,0
54.0,0,1,0,2,3,2,2,1,0,1,0,4,2,4,3,0,3,0,0,1,0
55.0,0,1,0,1,3,2,1,2,0,1,0,5,2,4,1,0,5,0,0,1,0
56.0,0,0,1,0,3,1,3,2,0,1,0,5,2,4,1,0,5,0,0,1,0
57.0,3,0,0,1,2,1,2,3,0,1,1,5,1,5,0,0,6,0,0,1,0
58.0,3,1,0,1,1,2,1,3,0,0,2,4,1,5,2,0,6,0,0,1,0
59.0,2,3,0,0,1,2,2,3,0,0,2,4,1,5,2,0,6,0,0,1,0
60.0,1,4,0,0,1,2,1,3,0,0,2,4,1,5,3,0,6,0,0,1,0
61.0,0,3,1,1,1,2,2,2,0,0,2,4,1,5,3,0,6,0,0,1,0
62.0,0,3,1,1,0,3,2,2,0,0,2,5,0,5,4,0,4,0,2,0,0
63.0,1,1,2,1,1,2,2,2,0,0,1,5,1,4,3,0,7,0,2,0,0
64.0,1,1,1,2,1,2,2,1,1,0,2,5,1,4,2,0,7,0,2,0,0
65.0,0,1,1,2,2,3,2,0,1,0,2,4,1,4,1,1,9,0,1,0,0
66.0,1,1,0,1,3,2,2,1,1,0,2,5,1,4,1,1,9,1,0,0,0
67.0,0,1,1,1,2,1,3,2,1,0,2,5,0,4,1,1,9,1,0,1,0
68.0,0,1,0,1,3,1,2,2,1,0,3,4,0,4,0,1,11,1,0,1,0
69.0,1,0,1,1,2,0,2,3,2,0,2,3,0,7,0,1,10,1,0,1,0
70.0,1,0,0,1,1,2,2,3,2,0,2,3,0,9,1,0,8,1,0,1,0
71.0,0,1,0,1,1,2,1,3,2,1,2,3,0,9,1,0,8,1,0,1,0
72.0,0,1,0,0,2,2,0,3,2,2,0,3,0,9,1,0,8,2,0,2,0
73.0,0,0,1,0,1,2,2,2,2,2,1,2,1,8,1,0,8,2,0,2,0
74.0,0,0,0,1,1,2,2,2,2,2,1,1,2,8,0,0,7,4,0,2,0
75.0,1,0,0,1,0,2,2,3,2,2,1,1,2,8,1,0,7,3,0,2,0
76.0,2,0,0,0,1,2,2,2,2,1,1,2,2,8,1,0,8,3,0,2,0
77.0,2,1,0,0,1,2,2,1,2,1,2,2,2,8,1,0,8,4,0,1,0
78.0,1,2,0,0,1,2,2,1,1,2,3,1,2,7,4,0,6,4,0,1,0
79.0,2,2,1,0,0,2,2,1,1,2,3,1,2,7,4,0,7,4,0,1,0
80.0,3,1,1,1,0,1,2,1,0,3,3,1,2,7,4,1,7,4,0,1,0
81.0,1,2,1,2,0,1,2,1,0,3,3,1,2,7,4,1,7,4,1,0,0
82.0,0,3,0,2,1,2,1,0,0,3,4,1,2,7,4,1,7,4,1,0,0
83.0,0,1,2,1,2,1,1,0,0,3,3,2,3,7,4,2,7,3,0,0,1
84.0,0,1,1,2,2,1,1,0,0,3,3,3,3,7,4,2,6,3,0,0,1
85.0,0,0,1,2,2,1,2,0,0,3,5,3,3,7,3,2,5,3,0,0,1
86.0,0,0,0,2,2,2,1,0,0,3,5,4,3,7,4,1,4,3,0,0,1
87.0,2,0,0,1,3,2,1,0,0,3,3,5,3,9,3,1,4,3,0,0,1
88.0,2,0,0,0,3,1,0,2,0,2,2,5,2,10,4,1,6,2,1,0,1
89.0,0,2,0,0,2,0,0,4,0,2,3,5,2,10,4,1,5,2,1,0,0
90.0,0,2,0,0,1,1,0,4,0,2,1,5,2,12,4,1,5,2,1,0,0
91.0,2,2,0,0,0,1,1,4,0,1,1,7,2,12,2,0,6,1,2,0,1
92.0,2,0,2,0,0,1,1,4,0,0,2,6,2,12,1,0,8,1,1,1,1
93.0,1,2,1,1,0,2,1,3,0,0,3,7,1,12,2,0,6,1,1,1,1
94.0,2,2,0,2,0,1,2,2,1,0,4,7,1,12,2,0,5,1,1,1,0
95.0,1,1,2,1,1,1,2,2,1,0,5,7,1,12,1,1,5,1,0,1,0
96.0,0,2,1,1,2,1,1,1,2,0,6,6,2,12,2,1,5,1,0,0,0
97.0,0,1,1,2,2,2,1,0,2,0,5,5,2,12,4,1,5,0,1,0,0
98.0,1,0,1,2,2,2,1,1,2,0,5,5,3,11,4,1,5,0,1,0,0
99.0,1,0,1,1,2,1,1,2,2,0,3,6,3,13,3,1,6,0,1,0,0
100.0,1,1,0,1,3,0,2,2,2,0,3,6,3,14,3,1,5,0,0,0,1
101.0,2,1,0,1,2,1,2,2,1,1,2,5,3,15,4,1,4,0,0,1,1
102.0,1,1,1,0,2,2,1,2,1,2,2,6,4,15,3,1,3,0,0,1,1
103.0,2,2,0,1,2,2,0,2,1,2,1,6,5,14,3,2,3,0,1,1,0
104.0,4,0,2,1,0,2,1,3,0,3,1,6,5,15,2,2,3,0,1,1,0
105.0,2,2,1,1,1,2,2,2,0,3,0,5,5,16,3,1,3,0,1,1,1
106.0,0,4,0,2,1,2,2,2,0,3,0,5,6,16,2,1,3,0,1,1,1
107.0,2,2,2,1,2,2,2,1,1,1,0,8,6,15,2,1,3,0,1,1,0
108.0,2,2,0,2,2,2,2,1,1,1,0,7,7,15,2,1,4,0,1,1,0
109.0,0,2,2,1,3,2,2,1,1,1,0,8,7,15,2,1,2,1,1,1,0
110.0,0,2,1,2,2,1,3,2,1,1,0,9,7,15,1,0,2,1,1,1,1
111.0,1,0,2,2,3,1,2,1,2,1,0,9,7,15,2,0,2,2,1,0,1
112.0,1,0,1,2,2,1,2,3,2,1,1,9,8,14,2,0,1,2,0,1,1
113.0,0,1,0,2,3,2,2,2,2,1,1,9,8,14,2,0,1,2,0,1,0
114.0,1,1,0,1,3,1,1,3,1,2,1,10,8,14,2,0,1,2,1,1,0
115.0,1,0,1,0,3,2,1,3,1,2,1,10,8,14,2,0,1,2,1,1,0
116.0,1,1,1,0,2,2,2,3,1,1,1,10,9,15,0,0,1,2,2,1,0
117.0,2,1,0,1,1,1,2,4,1,1,1,12,9,15,0,0,0,3,1,1,0
118.0,1,1,1,1,0,2,2,4,1,1,0,12,8,16,0,1,0,2,2,1,0
119.0,1,2,0,1,1,2,2,3,0,3,0,11,8,17,0,1,0,2,1,2,0
120.0,2,1,1,1,1,2,2,3,0,2,0,11,8,17,1,2,0,1,1,2,0
121.0,1,1,1,1,1,3,2,2,0,2,0,10,8,17,1,2,2,2,0,2,0
122.0,1,2,1,1,1,2,2,2,0,3,0,10,8,17,1,1,2,3,0,1,1
123.0,1,2,1,1,2,2,1,2,1,2,0,10,9,16,2,1,2,3,0,1,1
124.0,2,1,1,1,2,3,2,1,1,1,1,9,9,16,3,1,2,3,0,1,1
125.0,1,2,0,2,2,2,2,1,1,1,1,10,9,16,2,1,3,3,0,1,0
126.0,0,2,0,2,2,1,3,2,1,1,1,10,9,16,2,1,3,3,0,1,0
127.0,0,1,1,1,3,2,2,1,1,2,1,9,9,16,3,2,3,3,0,0,0
128.0,0,0,1,1,3,1,2,2,2,2,2,10,8,17,2,1,2,2,0,1,1
129.0,0,0,0,2,2,2,2,2,2,1,2,10,10,17,2,1,1,2,0,1,1
130.0,0,0,0,2,1,1,2,3,2,1,2,10,10,17,2,1,2,2,0,1,1
131.0,1,0,0,0,2,2,1,3,2,2,2,9,11,17,2,1,2,2,0,1,0
132.0,1,0,0,0,2,2,2,2,1,2,3,9,11,17,2,2,2,2,0,0,0
133.0,1,0,0,0,1,2,1,3,1,2,2,10,11,19,2,1,1,2,0,0,1
134.0,2,1,0,0,0,2,2,3,1,2,3,10,11,19,1,2,1,1,0,0,1
135.0,3,0,1,0,0,2,2,2,0,3,3,10,11,19,2,2,1,1,0,0,1
136.0,1,2,0,1,0,2,2,2,0,2,3,10,11,19,2,2,2,1,0,0,0
137.0,1,3,0,1,0,3,2,1,0,2,2,10,11,20,2,3,2,0,0,0,0
138.0,3,1,2,0,1,3,1,0,0,3,1,10,10,19,3,3,4,0,1,0,0
139.0,2,2,0,2,1,2,2,0,0,3,0,10,10,20,3,2,4,0,1,0,1
140.0,0,3,0,3,1,2,2,0,0,2,0,10,10,20,4,2,4,0,1,0,1
141.0,0,2,1,2,1,1,2,1,0,2,0,11,11,20,2,2,5,0,0,1,1
142.0,0,0,2,1,3,0,2,1,0,2,0,11,11,20,3,2,5,0,0,1,0
143.0,0,0,1,2,2,0,2,2,0,2,0,11,12,19,3,2,5,0,0,1,0
144.0,1,0,0,2,2,1,1,2,0,1,1,10,11,19,5,1,5,0,1,1,1
145.0,1,0,0,1,3,1,0,2,0,2,1,11,11,19,5,1,4,0,1,1,1
146.0,1,1,0,0,3,2,0,2,0,1,2,11,11,19,5,1,4,1,1,0,1
147.0,1,0,1,0,2,1,1,3,0,1,3,12,11,19,4,1,3,1,0,1,0
148.0,1,1,1,0,1,2,1,3,0,1,3,12,11,18,5,0,2,1,1,1,1
149.0,2,1,0,1,0,3,1,3,0,0,3,11,10,18,6,0,2,1,3,1,1
150.0,1,1,1,0,1,2,1,3,0,0,4,10,10,18,6,0,3,1,3,1,1
151.0,0,2,1,0,1,2,2,2,0,0,4,11,11,18,5,0,3,1,2,1,0
152.0,0,1,1,1,1,2,3,1,0,0,4,12,12,18,4,0,2,2,2,0,0
153.0,0,0,1,1,2,2,2,1,1,0,4,12,14,17,4,0,1,2,2,0,0
154.0,0,0,0,2,1,2,2,1,1,0,4,13,13,19,3,0,1,3,1,0,0
155.0,1,0,0,1,2,1,3,1,1,0,3,12,13,20,4,1,1,3,0,0,0
156.0,2,0,0,0,2,1,2,2,1,0,3,13,13,21,2,1,2,3,0,0,0
157.0,1,1,0,0,2,1,2,1,2,0,3,13,13,21,2,1,2,3,0,0,0
158.0,1,2,0,0,1,1,1,2,2,0,2,13,14,23,2,1,1,3,0,0,0
159.0,1,1,1,0,0,2,1,2,2,0,2,11,14,25,2,1,1,3,0,0,0
160.0,0,1,1,1,0,1,1,2,2,0,2,11,14,26,2,0,1,3,0,0,1
161.0,1,1,0,2,0,2,1,1,2,0,2,11,15,26,1,1,1,2,0,0,1
162.0,1,0,1,1,1,2,2,0,1,1,1,11,16,26,1,1,1,1,0,1,1
163.0,0,1,0,1,2,2,1,0,2,1,1,11,17,26,1,1,0,1,0,1,0
164.0,0,1,0,1,2,1,2,0,2,1,0,9,20,25,2,1,0,1,0,1,0
165.0,0,0,1,0,2,0,2,1,2,1,0,9,20,27,1,0,0,1,0,1,1
166.0,0,0,0,1,1,0,2,2,1,2,0,9,20,27,1,0,0,1,0,1,1
167.0,0,0,0,1,0,0,1,3,1,2,0,9,20,27,2,1,0,1,0,0,1
168.0,0,0,0,0,1,1,0,2,1,2,0,9,20,28,2,1,0,1,0,0,1
169.0,0,0,0,0,1,2,0,1,1,2,0,7,22,27,2,1,0,1,0,1,0
170.0,0,0,0,0,1,1,1,1,0,2,1,7,22,27,2,1,0,1,0,1,0
171.0,1,0,0,0,0,3,1,0,0,2,1,7,22,27,2,1,0,1,0,1,0
172.0,2,0,0,0,0,2,2,0,1,1,1,8,22,27,1,0,0,1,0,1,1
173.0,2,1,0,0,0,2,2,0,1,1,1,8,22,27,1,1,0,1,0,0,1
174.0,1,2,0,0,0,1,2,0,1,2,0,6,25,27,1,1,0,1,0,0,1
175.0,0,2,1,0,0,0,2,1,1,2,0,6,24,27,2,1,0,1,0,0,0
176.0,0,1,1,1,0,0,1,1,1,2,0,7,24,27,2,1,0,1,0,0,0
177.0,0,0,1,2,0,0,0,1,1,2,0,7,24,28,2,1,0,0,1,0,0
178.0,0,0,0,2,1,0,1,0,1,2,0,7,24,28,2,0,0,0,1,0,1
179.0,0,0,0,1,2,0,1,0,2,1,1,6,25,27,1,0,0,1,1,0,1
180.0,1,0,0,0,3,0,1,0,1,1,1,5,25,27,3,0,0,1,0,1,1
181.0,0,1,0,0,2,0,0,1,1,1,1,6,25,27,3,0,0,1,0,1,0
182.0,0,1,0,0,2,0,0,1,1,1,1,6,25,27,3,0,0,1,0,1,0
183.0,1,0,1,0,0,0,0,3,1,1,1,6,25,27,3,0,0,1,0,1,0
184.0,1,0,0,1,0,1,0,2,1,1,0,4,26,27,4,0,0,2,0,1,0
185.0,2,1,0,1,0,1,0,2,1,1,0,6,26,27,2,1,0,2,0,0,0
186.0,3,1,0,0,1,2,0,1,2,0,0,6,26,27,2,1,0,2,0,0,0
187.0,1,2,1,0,1,2,1,0,2,0,0,6,26,27,2,1,0,1,1,0,0
188.0,0,3,0,1,1,1,2,0,1,0,0,6,26,27,3,1,0,1,1,0,0
189.0,1,1,2,1,0,1,2,1,1,0,0,4,27,27,4,1,0,1,1,0,0
190.0,0,2,1,1,1,1,1,1,1,0,0,4,28,29,2,0,0,1,0,1,1
191.0,1,1,1,2,1,0,2,1,1,0,0,4,28,29,2,0,0,1,0,1,1
192.0,2,1,0,2,2,1,1,0,1,1,0,4,28,29,2,0,0,1,0,1,0
193.0,2,1,0,2,2,1,1,1,1,1,0,5,28,29,1,0,0,0,1,1,0
194.0,1,2,0,1,3,1,0,1,1,2,0,5,28,28,1,0,0,1,1,1,0
195.0,0,2,1,1,1,0,1,3,0,2,0,3,30,29,1,1,0,1,1,0,0
196.0,2,2,0,1,2,1,1,2,0,1,0,3,30,29,2,1,0,1,0,1,0
197.0,3,0,2,1,1,2,1,2,0,1,0,3,30,29,2,1,0,1,0,1,0
198.0,1,2,1,1,2,2,0,2,0,1,0,3,30,30,2,1,0,1,0,1,0
199.0,0,3,0,1,2,2,1,2,1,0,1,3,29,30,2,1,0,1,0,1,0
200.0,1,1,2,1,2,2,1,2,1,0,1,2,31,30,1,0,0,1,0,1,1
201.0,1,1,1,1,2,2,2,2,1,0,1,3,31,30,0,1,0,1,0,0,1
202.0,0,1,1,2,1,3,1,2,1,1,1,3,31,30,0,1,0,0,1,0,1
203.0,0,1,0,1,3,2,2,2,1,1,0,3,31,30,0,1,1,0,1,0,0
204.0,0,0,1,1,2,2,2,2,1,1,0,3,31,30,0,1,1,1,0,1,0
205.0,0,0,0,1,2,3,2,2,1,1,0,1,33,30,0,1,1,1,0,1,0
206.0,0,0,0,1,2,1,2,2,0,1,0,1,33,32,1,0,1,1,0,1,1
207.0,1,0,0,0,2,2,2,2,0,0,0,1,33,32,2,0,1,1,0,1,1
208.0,1,0,0,0,1,2,3,2,0,0,0,1,33,32,2,0,1,1,0,1,1
209.0,0,1,0,0,1,2,2,2,0,1,0,1,33,31,2,1,1,2,0,0,0
210.0,0,1,0,0,0,2,2,2,0,1,0,0,34,32,2,1,1,2,0,0,0
211.0,0,0,1,0,0,2,3,1,0,1,0,0,34,32,2,1,0,2,0,1,0
212.0,1,0,0,1,0,2,2,1,0,1,0,1,35,33,0,1,0,2,0,1,0
213.0,1,0,0,1,0,2,2,0,0,1,0,1,36,33,0,1,0,2,0,1,0
214.0,0,1,0,0,1,1,3,0,1,0,0,1,35,34,0,0,0,2,0,1,1
215.0,2,1,0,0,1,1,2,0,1,1,0,1,35,34,0,0,0,2,0,1,1
216.0,2,1,0,0,1,1,1,0,1,2,0,1,35,34,0,0,0,2,1,0,1
217.0,1,2,1,0,0,0,2,1,1,2,0,0,36,34,0,0,0,2,1,0,0
218.0,1,2,0,1,0,0,1,1,1,2,0,0,36,34,1,0,0,1,1,1,0
219.0,0,2,1,0,1,0,1,1,1,2,0,0,37,33,1,1,0,0,1,1,0
220.0,0,1,1,1,1,1,0,0,2,2,0,1,36,33,1,1,0,0,1,1,0
221.0,1,0,1,1,2,1,0,0,3,1,0,1,36,33,1,1,0,0,1,1,0
222.0,2,0,0,2,1,1,0,1,2,1,0,1,36,33,2,1,0,0,0,2,0
223.0,1,1,0,1,2,0,1,1,2,1,0,2,36,33,1,2,0,0,0,1,0
224.0,2,1,0,0,2,0,1,2,2,1,0,2,36,32,1,1,0,1,0,1,1
225.0,1,1,1,0,1,0,1,3,2,1,0,3,35,32,1,1,0,1,0,1,1
226.0,1,0,1,1,0,1,0,3,3,0,0,2,35,33,2,1,0,1,0,1,1
227.0,2,1,0,2,0,2,0,2,3,0,0,3,35,33,1,1,0,1,0,1,0
228.0,3,1,0,1,1,1,1,2,3,0,0,3,36,32,1,2,0,1,0,0,0
229.0,2,2,1,0,2,2,1,1,2,0,0,2,36,33,2,1,0,1,0,0,1
230.0,2,3,0,1,2,2,2,0,1,0,0,2,35,33,3,1,0,2,0,0,1
231.0,0,3,2,1,1,2,2,1,1,0,1,1,35,33,3,1,0,2,0,0,1
232.0,0,2,2,1,2,1,2,1,1,0,1,1,35,33,4,1,0,1,0,1,0
233.0,0,1,2,1,2,0,2,2,1,1,1,1,36,32,4,1,0,1,0,1,0
234.0,0,0,2,2,2,1,2,1,1,1,1,1,37,32,3,0,0,1,0,1,1
235.0,1,0,1,2,2,2,1,1,1,1,1,2,36,33,2,0,0,2,0,1,1
236.0,2,0,0,2,2,2,0,2,0,1,0,2,36,33,4,0,0,3,0,1,1
237.0,0,2,0,1,3,3,0,1,0,1,0,2,36,34,3,0,0,3,1,0,0
238.0,0,2,0,0,3,1,2,2,1,0,0,1,37,33,3,0,0,4,1,0,0
239.0,3,1,1,0,1,2,2,3,1,0,0,1,37,34,2,0,0,3,2,0,0
240.0,3,0,1,1,1,2,2,3,1,0,0,0,37,35,1,1,0,4,1,0,0
241.0,0,3,0,2,0,2,1,3,1,1,0,0,37,35,2,1,0,4,1,0,0
242.0,0,3,0,2,0,2,2,2,1,1,0,1,37,35,1,1,0,3,0,2,0
243.0,0,1,2,0,2,2,2,2,1,1,0,1,38,34,1,1,0,3,0,2,0
244.0,0,0,2,1,2,2,2,1,1,1,0,1,38,34,2,1,0,3,0,2,0
245.0,2,0,0,3,2,2,2,0,1,1,0,1,37,35,3,0,0,3,0,2,1
246.0,2,0,0,2,1,2,2,2,0,0,0,2,37,35,4,0,0,3,0,2,1
247.0,2,1,0,0,3,0,3,2,0,0,0,1,38,35,5,1,1,2,0,1,1
248.0,1,2,0,0,2,0,2,3,0,0,0,1,39,35,5,1,1,2,0,1,0
249.0,0,1,2,0,2,2,2,1,0,0,0,1,39,36,4,1,1,2,0,1,0
250.0,0,1,1,1,0,2,1,2,0,1,0,1,39,39,2,1,2,1,0,1,0
251.0,1,0,1,2,0,2,1,2,0,1,0,0,40,39,2,1,2,1,0,1,0
252.0,1,0,1,2,0,1,3,1,0,1,0,0,40,39,2,0,2,1,1,0,1
253.0,1,0,0,1,2,3,2,0,0,1,0,0,41,38,2,0,2,1,1,0,1
254.0,1,1,0,1,2,2,3,0,0,1,0,0,42,38,1,0,2,0,1,1,1
255.0,1,0,1,0,3,2,2,0,1,0,0,1,42,39,0,0,1,0,1,2,0
256.0,1,1,0,1,2,1,3,0,1,0,0,1,42,39,1,1,1,0,0,2,0
257.0,1,1,0,1,0,0,3,3,1,0,0,1,43,38,1,1,1,0,0,2,0
258.0,0,1,1,0,1,0,2,3,1,1,0,1,43,38,1,1,0,0,1,2,0
259.0,0,1,0,1,1,1,1,3,1,1,0,1,43,38,1,1,0,0,2,1,0
260.0,0,0,1,1,1,2,1,1,1,2,0,0,42,39,2,1,0,0,2,1,0
261.0,0,0,0,1,1,2,1,1,1,2,0,0,43,39,2,0,0,0,2,1,1
262.0,1,0,0,1,1,1,1,2,2,1,0,0,43,40,1,1,0,0,0,2,1
263.0,1,0,0,0,2,1,2,1,2,1,0,0,44,39,1,1,0,0,0,2,1
264.0,1,0,0,0,1,1,2,2,1,1,0,0,44,39,2,1,0,0,0,2,0
265.0,1,1,0,0,0,2,1,2,1,1,0,1,43,39,3,1,0,0,1,1,0
266.0,1,0,1,0,0,1,1,2,1,1,0,1,43,41,2,0,0,0,1,1,1
267.0,1,1,0,1,0,1,1,2,1,1,0,1,43,41,2,0,0,0,1,1,1
268.0,2,1,0,1,0,2,1,1,1,1,0,1,45,40,1,1,0,0,0,1,1
269.0,1,1,1,0,1,2,0,1,1,1,0,1,45,40,2,2,0,0,0,0,0
270.0,3,1,0,1,1,1,1,0,0,1,0,1,45,40,4,2,0,0,0,0,0
271.0,2,1,1,1,1,0,2,0,0,1,0,1,44,41,4,2,0,0,0,0,0
272.0,0,3,0,1,1,0,3,0,0,1,0,1,44,41,4,2,0,0,0,0,0
273.0,0,2,1,1,1,0,2,0,0,1,0,1,44,41,5,1,0,0,0,0,1
274.0,1,1,1,1,2,0,1,0,0,1,0,1,44,41,5,1,1,0,0,0,1
275.0,1,0,1,2,1,0,1,1,0,1,1,0,46,41,3,1,1,0,0,0,1
276.0,0,1,0,2,2,0,1,1,1,0,1,0,45,41,4,1,1,0,0,0,0
277.0,0,1,0,1,2,1,0,2,1,0,1,0,45,41,4,1,1,0,0,0,0
278.0,1,0,1,0,2,2,1,1,1,0,1,0,46,40,4,0,1,0,0,0,1
279.0,1,0,0,1,2,1,1,2,1,0,1,1,46,40,3,0,1,0,0,0,1
280.0,0,1,0,0,2,1,2,2,1,0,0,1,46,41,2,0,1,1,0,0,1
281.0,0,1,0,0,1,1,2,3,1,0,0,1,45,42,2,0,0,2,0,0,0
282.0,2,0,1,0,1,2,1,2,1,1,0,1,45,42,2,0,0,2,0,0,0
283.0,2,1,0,1,0,2,0,3,1,1,0,1,46,42,2,0,0,2,0,0,0
284.0,1,2,0,1,0,0,2,3,0,1,0,0,47,42,3,0,0,2,0,0,0
285.0,0,2,1,0,1,1,2,2,0,1,0,0,47,42,3,0,0,2,0,0,0
286.0,0,1,1,1,1,2,0,2,0,1,0,2,46,42,3,0,0,2,0,0,0
287.0,0,0,1,2,1,3,0,1,1,0,0,2,46,42,3,0,0,2,0,0,0
288.0,0,0,1,1,1,2,1,2,1,0,0,2,47,42,2,0,0,2,0,0,0
289.0,1,0,0,2,1,1,1,1,1,1,0,2,48,42,2,0,0,1,0,1,0
290.0,1,0,0,0,3,1,1,1,1,1,0,2,48,42,2,0,0,0,0,2,0
291.0,1,1,0,0,2,0,2,1,1,1,1,0,47,43,3,0,0,1,0,2,0
292.0,1,1,0,0,2,0,2,1,1,1,1,0,47,43,3,0,0,1,0,2,0
293.0,1,0,1,0,0,0,3,2,1,1,1,0,48,42,3,0,0,1,0,2,0
294.0,1,1,0,1,0,1,2,1,1,1,1,0,48,43,3,0,0,1,1,1,0
295.0,2,1,0,1,0,1,2,1,1,1,1,0,48,43,3,0,0,1,1,1,0
296.0,2,1,1,0,1,1,3,0,1,1,0,0,48,45,1,0,0,2,1,1,0
297.0,1,2,0,1,1,2,1,0,1,1,0,1,47,45,2,1,0,2,0,1,0
298.0,0,2,1,1,1,2,1,0,1,1,0,1,48,44,2,1,0,2,0,1,0
299.0,1,2,0,1,1,2,2,0,2,0,0,1,49,44,1,1,0,1,0,2,0
300.0,1,0,2,1,1,2,1,1,2,0,0,1,49,44,1,2,0,1,0,1,0
301.0,0,1,1,1,2,1,1,1,2,0,0,1,49,44,2,2,0,1,0,1,0
302.0,0,1,0,1,2,1,0,3,2,0,0,0,48,47,1,1,0,1,0,1,1
303.0,0,0,1,1,2,0,0,2,1,1,0,0,49,46,3,1,0,1,0,1,1
304.0,0,0,0,1,2,0,1,2,1,1,0,0,49,46,3,1,1,0,0,1,1
305.0,1,0,0,1,1,0,3,1,1,1,0,0,49,46,3,1,1,0,1,0,0
306.0,1,0,0,0,2,1,3,0,1,1,0,0,49,46,3,0,1,0,1,0,1
307.0,2,1,0,0,1,2,3,0,0,0,0,1,50,46,3,0,1,0,1,0,1
308.0,2,1,0,0,1,2,2,0,0,1,1,1,50,46,2,1,1,0,0,0,1
309.0,0,2,1,0,0,2,3,0,0,1,1,1,50,46,2,1,1,0,0,0,1
310.0,0,2,0,1,0,3,1,1,0,1,1,1,50,46,2,1,1,0,0,0,0
311.0,0,0,2,1,0,3,1,1,0,1,1,1,50,46,2,1,1,0,0,0,0
312.0,0,0,0,2,1,2,1,1,0,1,0,0,52,46,1,1,0,2,0,1,0
313.0,1,0,0,2,1,1,1,1,1,1,0,0,51,47,1,0,0,2,0,1,1
314.0,0,1,0,0,3,1,0,2,1,1,0,0,51,47,1,0,0,2,0,1,1
315.0,2,1,0,0,2,0,1,3,1,1,0,0,51,47,1,0,0,2,0,1,1
316.0,2,0,1,0,2,0,1,3,1,1,0,0,51,48,0,0,0,2,0,1,0
317.0,0,2,1,0,1,1,2,1,1,2,0,0,52,47,0,0,0,2,1,0,0
318.0,0,1,1,1,0,2,2,1,1,1,0,0,51,48,1,0,0,2,1,0,0
319.0,1,0,1,1,1,2,2,1,1,1,0,0,51,48,1,0,0,2,1,0,0
320.0,1,0,0,2,1,2,0,1,1,2,0,0,51,48,2,1,0,1,0,1,0
321.0,0,1,0,1,2,1,0,2,0,2,0,0,51,48,3,1,1,0,0,1,0
322.0,1,1,0,0,3,1,0,2,0,1,1,0,51,47,4,1,1,0,0,1,0
323.0,1,0,1,0,2,1,1,2,0,1,1,1,51,47,3,1,1,0,0,1,0
324.0,0,1,0,1,1,1,2,1,0,2,1,1,51,47,3,1,1,0,0,1,0
325.0,1,1,0,1,0,1,3,1,0,1,1,1,51,48,3,0,1,0,0,1,1
326.0,1,1,0,0,1,0,2,1,0,2,1,1,52,48,3,0,1,0,1,0,1
327.0,1,1,1,0,1,1,1,1,0,2,0,1,54,47,2,0,1,1,1,0,1
328.0,1,1,0,1,1,1,1,1,0,2,0,0,53,48,2,0,1,2,1,0,0
329.0,0,1,1,1,0,2,1,1,0,1,0,0,53,48,3,1,0,2,1,0,0
330.0,0,0,1,1,1,1,1,2,0,1,0,0,54,48,2,1,0,2,1,0,0
331.0,0,0,1,1,1,1,1,2,0,0,0,0,54,48,3,1,0,2,1,0,0
332.0,0,0,0,1,1,1,2,1,0,0,0,0,55,48,3,1,0,2,0,1,0
333.0,0,0,0,0,2,2,1,0,0,1,0,0,55,48,3,1,0,2,0,1,0
334.0,0,0,0,0,2,2,1,0,0,1,0,1,55,48,2,0,0,2,0,1,1
335.0,1,0,0,0,1,2,1,1,0,1,0,1,55,48,2,0,1,1,0,1,1
336.0,2,0,0,0,1,0,1,2,0,1,0,1,56,48,2,0,1,1,0,1,1
337.0,1,1,0,0,0,0,2,2,0,1,0,1,56,48,1,0,1,1,0,2,0
338.0,0,2,0,0,0,1,2,1,0,1,0,1,56,48,1,1,1,1,0,1,0
339.0,0,1,1,0,0,2,1,0,1,1,1,1,55,48,1,1,1,1,0,1,0
340.0,0,0,1,1,0,3,0,0,1,1,1,1,55,48,1,1,1,1,0,1,0
341.0,1,0,0,2,0,2,0,0,1,1,1,1,55,49,1,1,1,1,0,1,0
342.0,1,0,0,1,1,1,0,1,1,1,1,1,56,48,1,1,1,1,0,1,0
343.0,1,1,0,0,2,1,0,1,1,1,1,1,56,48,1,0,0,1,2,0,1
344.0,2,1,0,0,2,0,0,2,2,0,0,0,55,50,1,0,0,2,2,0,1
345.0,1,1,1,0,1,0,0,2,2,1,0,0,55,50,1,0,0,1,2,1,1
346.0,1,2,0,1,0,0,1,2,2,1,0,0,55,51,0,1,0,1,0,2,0
347.0,1,1,1,1,0,0,1,2,1,1,0,0,55,51,1,1,0,1,0,2,0
348.0,1,1,1,1,1,0,2,0,1,2,1,0,55,50,1,1,0,1,0,2,0
349.0,1,1,0,2,1,0,1,1,1,2,1,0,54,50,1,1,0,2,0,2,0
350.0,2,1,1,1,2,0,1,1,2,1,1,0,54,50,1,1,0,2,1,1,0
351.0,3,1,0,1,3,2,0,0,2,1,1,0,54,50,1,0,0,2,1,1,1
352.0,2,2,1,1,2,2,1,0,1,1,0,0,55,50,1,0,1,2,1,1,1
353.0,1,3,0,1,2,2,2,0,1,0,1,0,55,49,2,1,1,2,0,1,0
354.0,1,2,2,1,1,0,1,2,1,0,1,0,54,49,4,1,1,3,0,1,0
355.0,1,2,1,1,2,0,1,2,1,0,1,0,54,49,4,2,1,3,0,0,0
356.0,0,1,2,2,1,0,2,2,1,0,1,0,54,49,4,2,1,3,0,0,0
357.0,0,1,1,2,2,1,2,1,1,0,1,0,55,50,2,2,1,3,0,0,0
358.0,1,0,1,2,2,1,3,1,0,0,0,0,56,49,3,1,1,3,0,1,1
359.0,1,0,0,2,3,1,2,2,0,0,0,0,55,51,2,1,0,3,0,2,1
360.0,1,1,0,1,3,2,2,1,0,0,0,0,55,51,3,1,0,2,0,3,0
361.0,1,1,0,0,3,2,3,1,0,0,0,0,55,51,3,1,0,2,0,3,0
362.0,1,1,1,0,2,4,3,0,0,0,0,0,55,51,3,0,0,2,0,3,1
363.0,1,1,0,1,1,3,3,1,0,0,1,0,57,50,2,0,0,2,1,2,1
364.0,2,1,1,1,0,3,3,1,0,0,1,0,56,51,3,0,0,2,1,2,1
365.0,2,0,1,1,1,3,3,1,0,0,1,0,57,51,2,0,0,2,1,2,0
366.0,1,2,0,2,1,2,2,2,0,0,1,0,57,51,3,1,0,2,0,2,0
367.0,2,2,0,2,1,2,2,2,0,0,0,0,57,51,3,1,0,1,1,3,0
368.0,2,1,2,0,2,2,2,3,0,0,1,0,57,51,2,1,1,0,1,3,0
369.0,1,3,1,1,2,0,2,4,0,0,1,0,56,52,3,1,1,0,1,3,0
370.0,1,2,1,2,1,2,2,2,0,1,1,0,56,52,3,1,1,0,0,3,1
371.0,0,2,1,2,1,2,2,3,0,1,1,0,57,52,2,1,1,0,0,3,1
372.0,1,1,1,2,2,0,2,4,0,1,0,0,57,52,3,1,1,1,1,2,1
373.0,1,0,1,2,3,2,1,2,0,2,0,0,57,52,3,1,1,1,1,2,0
374.0,1,0,0,2,3,2,1,3,0,2,0,1,58,52,1,1,1,1,1,2,0
375.0,0,1,0,2,2,1,2,4,0,1,0,1,58,52,2,2,1,1,0,2,0
376.0,0,1,0,1,2,1,3,2,0,3,0,1,58,52,2,1,0,1,0,3,1
377.0,0,0,1,0,2,2,3,2,0,3,1,1,59,51,1,1,0,2,0,2,1
378.0,0,0,0,1,2,3,2,2,0,2,1,1,58,52,2,1,0,2,0,2,1
379.0,0,0,0,1,1,3,3,1,0,2,2,0,58,52,3,1,0,1,0,3,0
380.0,0,0,0,0,1,3,3,1,0,3,2,0,59,52,2,1,0,1,0,3,0
381.0,0,0,0,0,1,4,2,1,1,2,2,0,59,52,2,0,0,1,0,3,1
382.0,0,0,0,0,0,3,3,2,1,2,2,0,60,51,2,0,0,1,1,2,1
383.0,0,0,0,0,0,2,2,2,1,2,1,0,60,53,2,0,0,2,1,2,1
384.0,2,0,0,0,0,3,1,2,1,2,0,0,60,53,2,0,0,3,1,2,0
385.0,2,0,0,0,0,2,1,2,1,3,0,0,60,53,2,0,0,2,2,2,0
386.0,2,2,0,0,0,2,0,3,1,3,0,0,60,53,2,1,0,2,1,2,0
387.0,3,2,0,0,0,2,0,3,1,2,0,0,61,52,3,1,0,2,2,1,0
388.0,1,3,1,0,0,1,0,3,1,2,0,0,60,54,3,2,0,2,1,1,0
389.0,1,3,1,1,0,0,0,2,1,3,0,0,60,55,3,2,0,2,1,1,0
390.0,3,2,1,2,0,0,0,2,0,3,0,0,60,55,4,3,1,1,0,1,0
391.0,3,2,1,2,1,1,0,1,0,3,0,0,60,55,4,2,1,1,0,1,1
392.0,1,3,1,2,2,1,0,0,0,3,0,0,61,55,4,2,1,1,1,0,1
393.0,0,3,1,2,3,1,0,0,0,3,0,0,62,54,4,2,2,0,1,0,1
394.0,1,2,1,2,3,1,1,0,1,2,0,0,61,55,4,2,2,0,1,0,0
395.0,3,1,1,2,4,0,1,0,1,2,0,0,62,55,4,2,2,0,0,0,1
396.0,3,1,1,2,3,0,3,0,1,2,0,0,62,55,4,2,2,0,0,0,1
397.0,1,3,0,2,3,0,4,0,2,1,0,0,63,55,3,2,2,0,0,0,1
398.0,2,3,1,1,3,0,4,1,2,1,0,1,63,54,3,2,1,0,0,1,0
399.0,3,2,1,1,3,0,4,2,2,0,0,1,62,55,4,2,1,0,0,1,0
400.0,0,4,1,2,2,2,4,1,2,0,0,1,62,56,3,2,1,0,0,1,0
401.0,0,3,1,2,2,2,5,1,2,0,0,1,62,56,3,1,0,0,0,2,1
402.0,1,2,1,2,2,4,5,0,1,0,0,1,64,55,3,1,0,0,0,2,1
403.0,2,1,1,2,3,2,5,1,1,1,1,0,63,56,3,1,0,0,1,1,1
404.0,2,1,1,2,3,2,5,2,1,1,1,0,64,56,2,1,0,0,1,1,0
405.0,1,2,0,2,2,3,6,2,1,1,1,1,64,56,1,1,0,0,1,1,0
406.0,3,2,0,2,3,3,5,1,0,3,1,1,64,56,2,1,0,0,0,1,1
407.0,3,1,1,1,3,3,6,1,0,3,1,1,66,55,1,1,0,0,1,0,1
408.0,1,2,1,2,2,4,6,1,1,2,0,2,65,55,1,1,0,1,1,0,1
409.0,0,3,0,2,1,2,7,3,1,3,0,2,65,55,1,1,0,1,1,0,0
410.0,1,1,2,1,2,2,7,3,1,3,1,1,65,55,1,1,0,1,1,0,0
411.0,1,1,1,1,2,2,7,4,2,2,1,1,65,55,1,1,0,1,0,0,1
412.0,1,1,1,2,2,1,7,3,2,2,1,2,64,56,2,1,0,1,0,0,1
413.0,3,1,0,2,2,2,7,3,2,2,2,2,64,55,2,1,0,1,0,0,1
414.0,3,0,1,1,2,3,7,3,2,2,2,2,64,55,2,1,0,1,0,0,0
415.0,2,3,0,1,3,3,7,1,2,3,1,2,64,55,3,1,1,1,0,0,0
416.0,2,2,1,1,2,3,7,2,2,2,1,2,64,55,4,1,2,0,0,0,0
417.0,0,3,2,0,2,3,8,2,3,1,1,2,64,56,3,0,2,0,0,0,1
418.0,1,2,2,1,1,2,8,3,3,2,2,0,65,56,2,0,2,0,0,1,1
419.0,1,1,1,2,2,2,7,2,2,3,2,0,65,56,4,0,2,0,0,1,1
420.0,0,2,0,2,2,3,7,2,2,3,2,0,65,57,3,0,2,0,0,1,0
421.0,0,1,1,2,2,3,7,1,2,3,2,0,65,57,4,0,2,0,0,1,0
422.0,0,0,0,2,3,3,7,2,2,3,2,0,65,58,3,0,2,0,0,1,0
423.0,0,0,0,2,2,4,7,2,2,2,0,0,66,57,4,0,3,1,0,1,0
424.0,0,0,0,1,3,4,7,1,1,3,0,0,67,57,4,0,2,1,0,2,0
425.0,0,0,0,0,3,2,8,1,1,4,0,0,69,57,3,0,2,1,0,2,0
426.0,0,0,0,0,2,4,7,1,1,3,0,0,69,57,4,0,2,1,0,2,0
427.0,0,0,0,0,1,4,8,1,2,2,0,0,69,57,3,0,2,2,0,2,0
428.0,0,0,0,0,0,2,9,2,2,3,1,0,69,56,3,0,2,3,0,1,0
429.0,0,0,0,0,0,3,8,2,2,3,1,0,70,56,2,0,2,3,0,1,0
430.0,0,0,0,0,0,4,7,2,2,3,1,0,70,57,1,0,1,4,0,1,0
431.0,0,0,0,0,0,3,6,2,3,3,1,0,70,58,1,0,1,4,0,1,0
432.0,0,0,0,0,0,3,5,3,4,2,1,0,70,58,1,0,1,4,0,1,0
433.0,0,0,0,0,0,3,5,3,3,2,1,0,71,57,2,0,1,4,1,0,0
434.0,0,0,0,0,0,3,5,2,2,2,0,0,71,58,3,0,1,4,1,1,0
435.0,0,0,0,0,0,1,4,4,2,2,0,0,71,59,3,1,1,4,0,1,0
436.0,0,0,0,0,0,2,3,4,3,1,0,0,71,60,2,1,1,4,0,1,0
437.0,0,0,0,0,0,2,3,4,3,0,0,0,70,61,3,1,1,4,0,1,0
438.0,0,0,0,0,0,3,1,4,3,0,0,0,71,60,4,1,0,3,1,2,0
439.0,0,0,0,0,0,2,1,5,3,0,0,0,72,60,3,1,0,3,2,1,0
440.0,0,0,0,0,0,2,1,4,3,0,0,0,72,61,3,0,0,3,2,1,1
441.0,0,0,0,0,0,2,0,4,3,0,0,0,72,61,4,0,0,3,2,1,1
442.0,0,0,0,0,0,1,0,4,2,0,0,0,72,62,5,2,0,2,0,2,1
443.0,0,0,0,0,0,2,0,3,1,0,0,0,72,62,6,2,0,2,0,2,0
444.0,0,0,0,0,0,1,0,3,1,0,0,1,72,63,5,2,0,2,1,1,0
445.0,0,0,0,0,0,1,0,2,1,0,0,1,72,63,6,2,0,2,1,1,0
446.0,0,0,0,0,0,2,0,1,1,0,0,1,72,63,6,3,0,1,1,1,0
447.0,0,0,0,0,0,1,0,1,1,0,0,1,72,64,6,2,0,1,1,1,1
448.0,0,0,0,0,0,1,0,0,1,1,0,1,73,64,5,2,0,0,1,2,1
449.0,0,0,0,0,0,0,0,0,1,2,1,1,73,64,4,3,0,0,1,1,1
450.0,0,0,0,0,0,0,0,0,0,2,1,1,73,64,5,3,0,0,1,1,0
451.0,0,0,0,0,0,0,0,0,0,2,1,1,74,64,4,3,0,0,1,1,0
452.0,0,0,0,0,0,0,0,0,0,2,1,1,73,65,4,4,0,0,0,1,0
453.0,0,0,0,0,0,0,0,0,0,1,1,0,73,65,5,3,1,0,1,0,1
454.0,0,0,0,0,0,0,0,0,0,0,1,0,74,66,4,3,1,0,1,0,1
455.0,0,0,0,0,0,0,0,0,0,0,1,0,74,66,4,3,1,0,1,0,1
456.0,0,0,0,0,0,0,0,0,0,0,1,0,74,66,4,4,1,0,0,0,0
457.0,0,0,0,0,0,0,0,0,0,0,1,0,73,67,4,4,1,0,0,0,0
458.0,0,0,0,0,0,0,0,0,0,0,0,0,73,66,5,3,1,1,0,0,1
459.0,0,0,0,0,0,0,0,0,0,0,0,0,75,66,3,3,1,1,0,0,1
460.0,0,0,0,0,0,0,0,0,0,0,0,0,75,66,3,3,1,1,0,0,1
461.0,0,0,0,0,0,0,0,0,0,0,0,0,76,66,2,3,0,2,0,0,0
462.0,0,0,0,0,0,0,0,0,0,0,0,1,75,66,2,2,0,2,0,0,1
463.0,0,0,0,0,0,0,0,0,0,0,0,1,75,66,2,2,0,2,0,0,1
464.0,0,0,0,0,0,0,0,0,0,0,1,2,76,65,0,2,0,2,0,0,1
465.0,0,0,0,0,0,0,0,0,0,0,1,2,76,65,0,2,0,2,0,0,0
466.0,0,0,0,0,0,0,0,0,0,0,1,2,76,65,0,2,1,1,0,0,0
467.0,0,0,0,0,0,0,0,0,0,0,2,1,75,66,0,1,1,1,0,0,1
468.0,0,0,0,0,0,0,0,0,0,0,1,1,75,66,0,1,1,2,0,0,1
469.0,0,0,0,0,0,0,0,0,0,0,2,0,76,65,0,1,1,1,0,1,1
470.0,0,0,0,0,0,0,0,0,0,0,2,0,76,65,0,1,1,1,0,1,1
471.0,0,0,0,0,0,0,0,0,0,0,2,0,76,65,0,1,1,1,0,1,0
472.0,0,0,0,0,0,0,0,0,0,0,1,0,75,65,1,0,1,2,0,1,1
473.0,0,0,0,0,0,0,0,0,0,0,1,0,75,65,1,0,1,2,0,1,1
474.0,0,0,0,0,0,0,0,0,0,0,1,1,75,64,1,0,0,2,1,1,1
475.0,0,0,0,0,0,0,0,0,0,0,0,1,75,64,1,0,0,3,1,1,0
476.0,0,0,0,0,0,0,0,0,0,0,0,1,75,64,1,0,0,2,1,2,0
477.0,0,0,0,0,0,0,0,0,0,0,0,2,75,64,0,1,0,2,0,2,0
478.0,0,0,0,0,0,0,0,0,0,0,0,2,75,63,0,1,0,3,0,2,0
479.0,0,0,0,0,0,0,0,0,0,0,1,1,75,63,0,1,1,2,1,1,0
480.0,0,0,0,0,0,0,0,0,0,0,1,1,75,63,0,1,1,2,1,1,0
481.0,0,0,0,0,0,0,0,0,0,0,1,1,75,63,0,1,1,2,1,1,0
482.0,0,0,0,0,0,0,0,0,0,0,1,1,75,63,0,2,1,2,0,1,0
483.0,0,0,0,0,0,0,0,0,0,0,3,0,74,63,0,1,1,2,0,1,1
484.0,0,0,0,0,0,0,0,0,0,0,2,0,74,63,0,1,1,2,1,1,1
485.0,0,0,0,0,0,0,0,0,0,0,2,0,74,63,0,1,1,2,1,1,0
486.0,0,0,0,0,0,0,0,0,0,0,2,0,74,63,0,1,0,1,1,3,0
487.0,0,0,0,0,0,0,0,0,0,0,2,0,74,63,0,2,0,1,0,3,0
488.0,0,0,0,0,0,0,0,0,0,0,0,0,74,63,0,1,0,3,0,3,1
489.0,0,0,0,0,0,0,0,0,0,0,0,0,73,63,1,1,0,3,0,3,1
490.0,0,0,0,0,0,0,0,0,0,0,0,0,73,63,1,1,0,3,1,2,1
491.0,0,0,0,0,0,0,0,0,0,0,0,0,73,63,1,1,1,2,1,2,0
492.0,0,0,0,0,0,0,0,0,0,0,0,0,73,63,1,1,1,2,1,2,0
493.0,0,0,0,0,0,0,0,0,0,0,0,0,73,63,1,1,1,2,0,2,1
494.0,0,0,0,0,0,0,0,0,0,0,0,0,74,63,0,1,1,2,0,2,1
495.0,0,0,0,0,0,0,0,0,0,0,0,0,74,63,0,1,1,1,1,2,1
496.0,0,0,0,0,0,0,0,0,0,0,0,0,74,63,0,1,1,1,1,2,0
497.0,0,0,0,0,0,0,0,0,0,0,0,0,74,63,0,1,1,1,1,2,0
498.0,0,0,0,0,0,0,0,0,0,0,0,0,74,63,0,1,1,0,0,3,1
499.0,0,0,0,0,0,0,0,0,0,0,0,0,74,62,0,1,1,1,1,2,1
500.0,0,0,0,0,0,0,0,0,0,0,0,0,74,62,0,1,1,1,1,2,1
501.0,0,0,0,0,0,0,0,0,0,0,0,0,74,62,0,1,1,1,1,2,0
502.0,0,0,0,0,0,0,0,0,0,0,0,0,74,62,0,2,1,1,0,2,0
503.0,0,0,0,0,0,0,0,0,0,0,0,0,74,62,0,1,1,1,0,2,1
504.0,0,0,0,0,0,0,0,0,0,0,0,0,74,61,0,1,1,2,1,1,1
505.0,0,0,0,0,0,0,0,0,0,0,0,0,73,62,0,1,1,2,1,1,1
506.0,0,0,0,0,0,0,0,0,0,0,0,0,73,62,0,1,1,2,1,1,0
507.0,0,0,0,0,0,0,0,0,0,0,0,0,73,62,0,1,0,2,0,2,1
508.0,0,0,0,0,0,0,0,0,0,0,0,0,73,61,1,1,1,1,0,2,1
509.0,0,0,0,0,0,0,0,0,0,0,0,0,73,61,1,1,1,1,1,1,1
510.0,0,0,0,0,0,0,0,0,0,0,0,0,72,61,1,1,1,2,1,1,1
511.0,0,0,0,0,0,0,0,0,0,0,0,0,72,61,1,1,1,2,1,1,0
512.0,0,0,0,0,0,0,0,0,0,0,0,0,72,61,1,0,1,2,1,1,1
513.0,0,0,0,0,0,0,0,0,0,0,0,0,73,61,0,1,1,1,0,2,1
514.0,0,0,0,0,0,0,0,0,0,0,0,0,74,60,0,1,1,1,1,1,1
515.0,0,0,0,0,0,0,0,0,0,0,0,0,74,60,0,1,1,1,1,1,0
516.0,0,0,0,0,0,0,0,0,0,0,0,0,73,61,0,1,1,1,1,1,0
517.0,0,0,0,0,0,0,0,0,0,0,0,0,73,61,0,2,0,1,0,2,0
518.0,0,0,0,0,0,0,0,0,0,0,1,0,73,60,0,1,0,0,0,3,1
519.0,0,0,0,0,0,0,0,0,0,0,1,0,73,60,0,1,0,0,1,2,1
520.0,0,0,0,0,0,0,0,0,0,0,1,0,72,61,0,1,0,0,1,2,1
521.0,0,0,0,0,0,0,0,0,0,0,1,0,72,61,0,1,0,0,1,2,0
522.0,0,0,0,0,0,0,0,0,0,0,1,0,72,61,0,2,0,0,0,2,0
523.0,0,0,0,0,0,0,0,0,0,0,0,0,73,60,0,1,0,1,1,1,1
524.0,0,0,0,0,0,0,0,0,0,0,0,0,73,60,0,1,0,1,1,1,1
525.0,0,0,0,0,0,0,0,0,0,0,0,0,72,60,1,1,0,1,1,1,1
526.0,0,0,0,0,0,0,0,0,0,0,0,0,72,60,1,2,0,1,0,1,0
527.0,0,0,0,0,0,0,0,0,0,0,0,0,72,60,1,2,0,1,0,1,0
528.0,0,0,0,0,0,0,0,0,0,0,0,0,72,59,2,1,0,1,0,1,1
529.0,0,0,0,0,0,0,0,0,0,0,0,1,72,59,1,1,0,1,1,0,1
530.0,0,0,0,0,0,0,0,0,0,0,0,1,71,60,1,1,0,1,1,0,1
531.0,0,0,0,0,0,0,0,0,0,0,0,1,71,60,1,1,1,0,1,0,0
532.0,0,0,0,0,0,0,0,0,0,0,0,1,71,60,1,2,1,0,0,0,0
533.0,0,0,0,0,0,0,0,0,0,0,1,1,72,59,0,2,1,0,0,0,0
534.0,0,0,0,0,0,0,0,0,0,0,2,0,71,59,1,1,1,0,0,0,1
535.0,0,0,0,0,0,0,0,0,0,0,2,0,71,59,1,1,1,0,0,0,1
536.0,0,0,0,0,0,0,0,0,0,0,2,0,71,59,1,1,1,0,0,0,1
537.0,0,0,0,0,0,0,0,0,0,0,1,0,71,59,1,1,1,1,0,0,0
538.0,0,0,0,0,0,0,0,0,0,0,1,0,71,58,1,1,1,2,0,0,0
539.0,0,0,0,0,0,0,0,0,0,0,0,0,71,58,1,0,0,3,0,1,1
540.0,0,0,0,0,0,0,0,0,0,0,0,0,70,59,0,0,0,4,0,1,1
541.0,0,0,0,0,0,0,0,0,0,0,0,0,70,59,0,0,0,4,0,1,1
542.0,0,0,0,0,0,0,0,0,0,0,0,0,70,59,0,0,0,4,0,1,0
543.0,0,0,0,0,0,0,0,0,0,0,0,0,71,58,0,0,0,4,0,1,0
544.0,0,0,0,0,0,0,0,0,0,0,0,0,71,58,0,0,0,4,1,0,0
545.0,0,0,0,0,0,0,0,0,0,0,0,0,70,58,1,0,0,4,1,0,0
546.0,0,0,0,0,0,0,0,0,0,0,0,0,70,58,1,0,0,4,1,0,0
547.0,0,0,0,0,0,0,0,0,0,0,0,0,71,57,1,0,1,2,1,1,0
548.0,0,0,0,0,0,0,0,0,0,0,0,0,71,57,1,1,1,2,0,1,0
549.0,0,0,0,0,0,0,0,0,0,0,0,0,71,57,1,1,1,2,0,1,0
550.0,0,0,0,0,0,0,0,0,0,0,0,0,70,58,0,1,1,3,0,1,0
551.0,0,0,0,0,0,0,0,0,0,0,0,0,70,58,0,1,1,3,0,1,0
552.0,0,0,0,0,0,0,0,0,0,0,1,0,70,57,0,1,1,3,1,0,0
553.0,0,0,0,0,0,0,0,0,0,0,1,0,70,57,0,0,1,3,1,0,1
554.0,0,0,0,0,0,0,0,0,0,0,1,0,70,57,0,0,1,3,1,0,1
555.0,0,0,0,0,0,0,0,0,0,0,1,1,69,57,0,1,2,1,0,1,0
556.0,0,0,0,0,0,0,0,0,0,0,1,1,70,56,0,1,2,1,0,1,0
557.0,0,0,0,0,0,0,0,0,0,0,0,1,70,56,0,1,2,2,0,1,0
558.0,0,0,0,0,0,0,0,0,0,0,0,1,70,56,0,1,2,2,0,1,0
559.0,0,0,0,0,0,0,0,0,0,0,0,1,70,56,0,1,2,2,0,1,0
560.0,0,0,0,0,0,0,0,0,0,0,0,0,69,57,0,1,2,3,1,0,0
561.0,0,0,0,0,0,0,0,0,0,0,0,0,70,56,0,0,2,3,1,0,1
562.0,0,0,0,0,0,0,0,0,0,0,0,0,70,56,0,1,1,3,0,1,1
563.0,0,0,0,0,0,0,0,0,0,0,0,0,70,56,0,1,1,2,0,2,0
564.0,0,0,0,0,0,0,0,0,0,0,0,0,70,56,0,1,0,2,0,3,0
565.0,0,0,0,0,0,0,0,0,0,0,0,0,70,56,0,1,0,1,0,4,0
566.0,0,0,0,0,0,0,0,0,0,0,0,0,69,57,0,1,0,1,1,3,0
567.0,0,0,0,0,0,0,0,0,0,0,0,0,70,56,0,0,0,1,1,3,1
568.0,0,0,0,0,0,0,0,0,0,0,0,0,70,56,0,0,0,1,1,3,1
569.0,0,0,0,0,0,0,0,0,0,0,0,0,70,56,0,1,0,1,0,3,1
570.0,0,0,0,0,0,0,0,0,0,0,0,0,70,56,0,1,0,1,0,3,0
571.0,0,0,0,0,0,0,0,0,0,0,0,0,69,57,0,1,0,1,1,2,0
572.0,0,0,0,0,0,0,0,0,0,0,0,0,70,56,0,1,1,0,1,2,0
573.0,0,0,0,0,0,0,0,0,0,0,0,0,70,56,0,1,1,0,1,2,0
574.0,0,0,0,0,0,0,0,0,0,0,0,0,70,56,0,2,1,0,0,2,0
575.0,0,0,0,0,0,0,0,0,0,0,0,0,70,56,0,1,1,0,0,2,1
576.0,0,0,0,0,0,0,0,0,0,0,0,0,69,56,1,1,1,0,1,1,1
577.0,0,0,0,0,0,0,0,0,0,0,1,0,69,55,1,1,1,0,1,1,1
578.0,0,0,0,0,0,0,0,0,0,0,1,0,69,55,1,1,1,0,1,1,0
579.0,0,0,0,0,0,0,0,0,0,0,1,0,69,55,1,2,1,0,0,1,0
580.0,0,0,0,0,0,0,0,0,0,0,1,0,69,55,1,1,0,0,0,2,1
581.0,0,0,0,0,0,0,0,0,0,0,0,1,69,55,0,1,0,1,0,2,1
582.0,0,0,0,0,0,0,0,0,0,0,1,1,68,55,0,1,0,1,1,1,1
583.0,0,0,0,0,0,0,0,0,0,0,1,1,68,55,0,1,0,1,1,1,0
584.0,0,0,0,0,0,0,0,0,0,0,1,1,68,55,0,1,0,1,1,1,0
585.0,0,0,0,0,0,0,0,0,0,0,1,1,68,55,0,1,0,1,0,1,1
586.0,0,0,0,0,0,0,0,0,0,0,2,0,67,55,1,1,0,1,0,1,1
587.0,0,0,0,0,0,0,0,0,0,0,1,0,68,54,1,1,0,2,1,0,1
588.0,0,0,0,0,0,0,0,0,0,0,1,0,68,54,1,1,0,2,1,0,0
589.0,0,0,0,0,0,0,0,0,0,0,1,0,68,54,1,1,0,2,1,0,0
590.0,0,0,0,0,0,0,0,0,0,0,1,0,68,54,1,2,0,1,0,1,0
591.0,0,0,0,0,0,0,0,0,0,0,0,1,67,54,0,1,0,3,0,1,1
592.0,0,0,0,0,0,0,0,0,0,0,0,1,68,53,0,1,0,3,0,1,1
593.0,0,0,0,0,0,0,0,0,0,0,0,1,68,53,0,1,0,3,0,1,0
594.0,0,0,0,0,0,0,0,0,0,0,0,1,68,53,0,1,0,3,0,1,0
595.0,0,0,0,0,0,0,0,0,0,0,0,1,68,53,0,0,1,2,1,0,1
596.0,0,0,0,0,0,0,0,0,0,0,2,0,67,53,0,0,1,2,1,0,1
597.0,0,0,0,0,0,0,0,0,0,0,3,0,67,52,0,0,1,2,1,0,1
598.0,0,0,0,0,0,0,0,0,0,0,3,0,67,52,0,1,1,2,0,0,1
599.0,0,0,0,0,0,0,0,0,0,0,3,0,67,52,0,1,1,2,0,0,0
600.0,0,0,0,0,0,0,0,0,0,0,3,0,67,52,0,1,2,1,0,0,0
601.0,0,0,0,0,0,0,0,0,0,0,1,0,66,52,1,1,2,3,0,0,0
602.0,0,0,0,0,0,0,0,0,0,0,2,0,66,51,1,1,2,3,0,0,0
603.0,0,0,0,0,0,0,0,0,0,0,1,0,66,51,1,0,2,3,0,1,1
604.0,0,0,0,0,0,0,0,0,0,0,1,0,66,51,1,0,1,3,0,2,1
605.0,0,0,0,0,0,0,0,0,0,0,1,1,66,51,0,0,1,3,0,2,1
606.0,0,0,0,0,0,0,0,0,0,0,1,1,65,52,0,0,1,3,0,2,0
607.0,0,0,0,0,0,0,0,0,0,0,0,1,66,51,0,0,1,4,0,2,0
608.0,0,0,0,0,0,0,0,0,0,0,0,1,66,51,0,0,1,4,1,1,0
609.0,0,0,0,0,0,0,0,0,0,0,0,1,66,51,0,0,1,3,1,2,0
610.0,0,0,0,0,0,0,0,0,0,0,1,0,66,51,0,0,1,3,1,2,0
611.0,0,0,0,0,0,0,0,0,0,0,2,0,66,50,0,1,1,3,0,2,0
612.0,0,0,0,0,0,0,0,0,0,0,2,0,65,51,0,1,2,2,0,2,0
613.0,0,0,0,0,0,0,0,0,0,0,2,0,65,51,0,1,2,2,1,1,0
614.0,0,0,0,0,0,0,0,0,0,0,2,0,65,51,0,1,2,2,1,1,0
615.0,0,0,0,0,0,0,0,0,0,0,2,0,65,51,0,1,2,2,1,1,0
616.0,0,0,0,0,0,0,0,0,0,0,0,0,66,50,0,1,2,4,0,1,1
617.0,0,0,0,0,0,0,0,0,0,0,0,0,65,51,0,1,1,4,0,2,1
618.0,0,0,0,0,0,0,0,0,0,0,0,0,65,51,0,1,2,3,1,1,1
619.0,0,0,0,0,0,0,0,0,0,0,0,0,65,51,0,1,1,3,1,2,0
620.0,0,0,0,0,0,0,0,0,0,0,0,0,65,51,0,1,2,2,1,2,0
621.0,0,0,0,0,0,0,0,0,0,0,0,0,66,50,0,1,2,2,0,2,1
622.0,0,0,0,0,0,0,0,0,0,0,0,0,65,51,0,1,2,2,0,2,1
623.0,0,0,0,0,0,0,0,0,0,0,0,0,65,51,0,1,2,2,1,1,0
624.0,0,0,0,0,0,0,0,0,0,0,0,0,65,51,0,1,2,2,1,1,0
625.0,0,0,0,0,0,0,0,0,0,0,0,0,65,51,0,1,1,2,1,2,0
626.0,0,0,0,0,0,0,0,0,0,0,0,0,66,50,0,1,2,1,0,2,1
627.0,0,0,0,0,0,0,0,0,0,0,0,0,65,50,1,1,3,0,0,2,1
628.0,0,0,0,0,0,0,0,0,0,0,0,0,65,50,1,1,2,0,1,2,1
629.0,0,0,0,0,0,0,0,0,0,0,0,0,65,50,1,1,2,0,1,2,0
630.0,0,0,0,0,0,0,0,0,0,0,0,0,65,50,1,0,2,0,1,2,1
631.0,0,0,0,0,0,0,0,0,0,0,1,1,65,49,0,1,2,0,0,2,1
632.0,0,0,0,0,0,0,0,0,0,0,1,1,64,50,0,1,2,0,0,2,1
633.0,0,0,0,0,0,0,0,0,0,0,1,1,64,50,0,1,2,0,1,1,0
634.0,0,0,0,0,0,0,0,0,0,0,1,1,64,50,0,1,1,0,1,2,0
635.0,0,0,0,0,0,0,0,0,0,0,0,1,64,50,0,1,0,1,1,3,0
636.0,0,0,0,0,0,0,0,0,0,0,1,0,65,49,0,1,0,1,0,3,1
637.0,0,0,0,0,0,0,0,0,0,0,1,0,64,50,0,1,0,1,1,2,1
638.0,0,0,0,0,0,0,0,0,0,0,1,0,64,50,0,1,0,1,1,2,1
639.0,0,0,0,0,0,0,0,0,0,0,1,0,64,50,0,1,0,1,1,2,0
640.0,0,0,0,0,0,0,0,0,0,0,0,0,64,50,0,2,0,2,0,2,0
641.0,0,0,0,0,0,0,0,0,0,0,0,0,65,49,0,1,0,2,0,2,1
642.0,0,0,0,0,0,0,0,0,0,0,0,0,64,50,0,1,1,1,1,1,1
643.0,0,0,0,0,0,0,0,0,0,0,0,0,64,50,0,1,1,1,1,1,1
644.0,0,0,0,0,0,0,0,0,0,0,0,0,64,50,0,2,1,1,0,1,0
645.0,0,0,0,0,0,0,0,0,0,0,0,0,64,50,0,2,1,1,0,1,0
646.0,0,0,0,0,0,0,0,0,0,0,0,0,65,49,0,2,1,1,1,0,0
647.0,0,0,0,0,0,0,0,0,0,0,0,0,65,49,0,1,1,1,1,0,1
648.0,0,0,0,0,0,0,0,0,0,0,0,0,64,49,1,1,2,0,1,0,1
649.0,0,0,0,0,0,0,0,0,0,0,0,0,64,49,1,2,2,0,0,0,1
650.0,0,0,0,0,0,0,0,0,0,0,0,0,64,49,1,2,1,0,0,1,0
651.0,0,0,0,0,0,0,0,0,0,0,1,0,64,48,1,1,1,0,0,1,1
652.0,0,0,0,0,0,0,0,0,0,0,1,0,63,49,1,1,1,0,0,1,1
653.0,0,0,0,0,0,0,0,0,0,0,1,1,63,49,0,1,1,0,0,1,1
654.0,0,0,0,0,0,0,0,0,0,0,1,1,63,49,0,1,1,0,0,1,0
655.0,0,0,0,0,0,0,0,0,0,0,1,1,63,49,0,1,1,0,1,0,0
656.0,0,0,0,0,0,0,0,0,0,0,2,1,63,48,0,0,0,0,1,1,1
657.0,0,0,0,0,0,0,0,0,0,0,1,1,62,49,0,0,0,1,1,1,1
658.0,0,0,0,0,0,0,0,0,0,0,2,0,62,49,0,1,0,1,0,1,1
659.0,0,0,0,0,0,0,0,0,0,0,2,0,62,49,0,1,0,1,0,1,0
660.0,0,0,0,0,0,0,0,0,0,0,2,0,62,49,0,1,0,1,1,0,0
661.0,0,0,0,0,0,0,0,0,0,0,1,0,62,48,1,1,0,2,1,0,0
662.0,0,0,0,0,0,0,0,0,0,0,1,0,62,48,1,1,0,2,1,0,0
663.0,0,0,0,0,0,0,0,0,0,0,0,0,62,48,1,0,0,3,1,0,1
664.0,0,0,0,0,0,0,0,0,0,0,0,0,62,48,1,1,1,2,0,0,1
665.0,0,0,0,0,0,0,0,0,0,0,0,0,62,48,1,1,1,2,0,0,1
666.0,0,0,0,0,0,0,0,0,0,0,0,2,62,47,0,1,1,2,0,0,0
667.0,0,0,0,0,0,0,0,0,0,0,0,2,62,47,0,1,1,2,0,0,0
668.0,0,0,0,0,0,0,0,0,0,0,0,2,62,47,0,0,1,2,0,0,1
669.0,0,0,0,0,0,0,0,0,0,0,0,2,62,47,0,0,1,2,0,0,1
670.0,0,0,0,0,0,0,0,0,0,0,1,2,62,46,0,0,1,2,0,0,1
671.0,0,0,0,0,0,0,0,0,0,0,2,1,62,46,0,0,1,0,0,2,0
672.0,0,0,0,0,0,0,0,0,0,0,2,1,61,47,0,0,1,0,0,2,0
673.0,0,0,0,0,0,0,0,0,0,0,2,1,61,47,0,0,1,0,0,2,0
674.0,0,0,0,0,0,0,0,0,0,0,2,1,61,47,0,0,1,0,0,2,0
675.0,0,0,0,0,0,0,0,0,0,0,1,1,61,47,0,0,1,1,0,2,0
676.0,0,0,0,0,0,0,0,0,0,0,2,0,60,47,1,0,1,1,1,1,0
677.0,0,0,0,0,0,0,0,0,0,0,1,0,60,47,1,0,1,2,1,1,0
678.0,0,0,0,0,0,0,0,0,0,0,1,0,60,47,1,0,1,2,1,1,0
679.0,0,0,0,0,0,0,0,0,0,0,1,0,60,47,1,1,0,2,0,2,0
680.0,0,0,0,0,0,0,0,0,0,0,1,0,60,47,1,1,0,2,0,2,0
681.0,0,0,0,0,0,0,0,0,0,0,1,2,59,46,0,1,0,3,1,1,0
682.0,0,0,0,0,0,0,0,0,0,0,1,2,59,46,0,1,1,2,1,1,0
683.0,0,0,0,0,0,0,0,0,0,0,1,2,59,46,0,1,1,2,1,1,0
684.0,0,0,0,0,0,0,0,0,0,0,1,2,59,46,0,1,1,2,0,1,1
685.0,0,0,0,0,0,0,0,0,0,0,1,2,60,45,0,1,1,2,0,1,1
686.0,0,0,0,0,0,0,0,0,0,0,0,1,59,47,0,1,2,2,1,0,1
687.0,0,0,0,0,0,0,0,0,0,0,1,0,59,47,0,1,2,2,1,0,0
688.0,0,0,0,0,0,0,0,0,0,0,1,0,59,47,0,1,2,2,1,0,0
689.0,0,0,0,0,0,0,0,0,0,0,1,0,59,47,0,1,3,1,0,0,1
690.0,0,0,0,0,0,0,0,0,0,0,1,0,60,46,0,1,2,1,1,0,1
691.0,0,0,0,0,0,0,0,0,0,0,1,0,59,47,0,1,2,1,1,0,1
692.0,0,0,0,0,0,0,0,0,0,0,0,0,59,47,0,1,2,2,1,0,0
693.0,0,0,0,0,0,0,0,0,0,0,0,0,59,47,0,1,1,2,0,2,0
694.0,0,0,0,0,0,0,0,0,0,0,0,0,59,47,0,0,2,1,0,2,1
695.0,0,0,0,0,0,0,0,0,0,0,0,0,59,47,0,0,2,1,0,2,1
696.0,0,0,0,0,0,0,0,0,0,0,1,0,58,47,0,0,2,1,0,2,1
697.0,0,0,0,0,0,0,0,0,0,0,1,0,58,47,0,0,1,1,1,2,0
698.0,0,0,0,0,0,0,0,0,0,0,1,0,58,47,0,1,1,1,1,1,0
699.0,0,0,0,0,0,0,0,0,0,0,1,0,58,47,0,1,2,0,0,2,0
700.0,0,0,0,0,0,0,0,0,0,0,1,0,58,47,0,1,2,0,0,2,0
701.0,0,0,0,0,0,0,0,0,0,0,0,0,58,46,1,1,1,1,1,2,0
702.0,0,0,0,0,0,0,0,0,0,0,0,0,58,46,1,1,1,1,1,2,0
703.0,0,0,0,0,0,0,0,0,0,0,0,0,58,46,1,0,1,1,2,1,1
704.0,0,0,0,0,0,0,0,0,0,0,0,0,58,46,1,0,1,1,2,1,1
705.0,0,0,0,0,0,0,0,0,0,0,0,0,58,46,1,0,1,1,1,2,1
706.0,0,0,0,0,0,0,0,0,0,0,0,1,58,46,0,1,1,1,0,2,0
707.0,0,0,0,0,0,0,0,0,0,0,0,1,58,46,0,1,0,1,0,3,0
708.0,0,0,0,0,0,0,0,0,0,0,0,1,58,46,0,2,0,1,0,2,0
709.0,0,0,0,0,0,0,0,0,0,0,0,1,58,46,0,2,1,0,0,2,0
710.0,0,0,0,0,0,0,0,0,0,0,0,1,58,46,0,2,1,0,0,2,0
711.0,0,0,0,0,0,0,0,0,0,0,0,1,57,47,0,1,1,0,0,2,1
712.0,0,0,0,0,0,0,0,0,0,0,1,0,58,46,0,1,1,0,0,2,1
713.0,0,0,0,0,0,0,0,0,0,0,1,0,58,46,0,1,1,0,0,2,1
714.0,0,0,0,0,0,0,0,0,0,0,1,0,58,46,0,2,1,0,0,1,0
715.0,0,0,0,0,0,0,0,0,0,0,1,1,57,46,0,2,1,0,0,1,0
716.0,0,0,0,0,0,0,0,0,0,0,1,1,57,46,0,1,1,0,0,1,1
717.0,0,0,0,0,0,0,0,0,0,0,1,1,57,45,0,1,0,1,0,2,1
718.0,0,0,0,0,0,0,0,0,0,0,1,1,57,45,0,1,0,1,0,2,1
719.0,0,0,0,0,0,0,0,0,0,0,1,1,57,45,0,1,0,1,1,1,0
720.0,0,0,0,0,0,0,0,0,0,0,1,0,56,46,1,1,0,1,1,1,0
721.0,0,0,0,0,0,0,0,0,0,0,1,0,56,46,1,1,0,1,1,1,0
722.0,0,0,0,0,0,0,0,0,0,0,1,0,57,45,1,1,0,1,0,1,1
723.0,0,0,0,0,0,0,0,0,0,0,0,0,57,45,1,1,0,2,1,0,1
724.0,0,0,0,0,0,0,0,0,0,0,0,0,57,45,1,1,1,1,1,0,1
725.0,0,0,0,0,0,0,0,0,0,0,0,0,56,45,2,1,1,1,1,0,0
726.0,0,0,0,0,0,0,0,0,0,0,0,1,56,45,1,2,1,1,0,0,0
727.0,0,0,0,0,0,0,0,0,0,0,1,1,56,44,1,1,1,1,0,0,1
728.0,0,0,0,0,0,0,0,0,0,0,1,1,56,44,1,1,1,1,0,0,1
729.0,0,0,0,0,0,0,0,0,0,0,1,1,56,44,1,1,1,1,0,0,1
730.0,0,0,0,0,0,0,0,0,0,0,1,2,56,44,0,1,1,1,0,0,0
731.0,0,0,0,0,0,0,0,0,0,0,2,2,55,44,0,1,1,0,0,1,0
732.0,0,0,0,0,0,0,0,0,0,0,1,2,56,43,0,0,1,1,0,1,1
733.0,0,0,0,0,0,0,0,0,0,0,1,2,56,43,0,0,1,1,0,1,1
734.0,0,0,0,0,0,0,0,0,0,0,1,2,56,43,0,0,1,1,0,1,1
735.0,0,0,0,0,0,0,0,0,0,0,2,0,55,45,0,0,1,1,0,1,0
736.0,0,0,0,0,0,0,0,0,0,0,1,0,55,45,0,0,1,2,0,1,0
737.0,0,0,0,0,0,0,0,0,0,0,1,0,56,44,0,0,1,2,1,0,0
738.0,0,0,0,0,0,0,0,0,0,0,1,0,56,44,0,0,1,2,1,0,0
739.0,0,0,0,0,0,0,0,0,0,0,1,0,56,44,0,0,1,2,1,0,0
740.0,0,0,0,0,0,0,0,0,0,0,0,1,55,44,0,1,1,2,1,0,0
741.0,0,0,0,0,0,0,0,0,0,0,0,1,55,44,0,1,1,2,1,0,0
742.0,0,0,0,0,0,0,0,0,0,0,0,1,56,43,0,1,1,2,1,0,0
743.0,0,0,0,0,0,0,0,0,0,0,0,1,56,43,0,1,1,2,0,1,0
744.0,0,0,0,0,0,0,0,0,0,0,0,1,56,43,0,1,2,1,0,1,0
745.0,0,0,0,0,0,0,0,0,0,0,0,2,55,43,0,0,2,1,0,1,1
746.0,0,0,0,0,0,0,0,0,0,0,0,1,55,44,0,0,2,1,0,1,1
747.0,0,0,0,0,0,0,0,0,0,0,0,1,55,44,0,1,2,1,0,0,0
748.0,0,0,0,0,0,0,0,0,0,0,0,1,55,43,1,1,3,0,0,0,0
749.0,0,0,0,0,0,0,0,0,0,0,0,2,54,43,1,1,2,0,1,0,0
750.0,0,0,0,0,0,0,0,0,0,0,1,1,54,43,1,1,2,0,1,0,0
751.0,0,0,0,0,0,0,0,0,0,0,1,1,54,43,1,1,1,0,1,1,0
752.0,0,0,0,0,0,0,0,0,0,0,1,1,55,42,1,1,1,0,0,2,0
753.0,0,0,0,0,0,0,0,0,0,0,1,2,55,42,0,0,1,0,0,2,1
754.0,0,0,0,0,0,0,0,0,0,0,1,2,54,43,0,0,1,0,0,2,1
755.0,0,0,0,0,0,0,0,0,0,0,1,2,54,43,0,0,1,0,0,2,1
756.0,0,0,0,0,0,0,0,0,0,0,0,2,54,43,0,0,0,1,1,2,0
757.0,0,0,0,0,0,0,0,0,0,0,1,2,54,42,0,0,0,1,1,2,0
758.0,0,0,0,0,0,0,0,0,0,0,1,1,55,42,0,0,0,1,1,2,0
759.0,0,0,0,0,0,0,0,0,0,0,1,1,54,43,0,1,0,1,0,2,0
760.0,0,0,0,0,0,0,0,0,0,0,1,1,54,43,0,1,0,1,0,2,0
761.0,0,0,0,0,0,0,0,0,0,0,1,1,54,43,0,2,0,1,0,1,0
762.0,0,0,0,0,0,0,0,0,0,0,0,2,54,42,0,2,0,2,0,1,0
763.0,0,0,0,0,0,0,0,0,0,0,0,2,54,42,0,2,0,2,0,1,0
764.0,0,0,0,0,0,0,0,0,0,0,0,1,54,43,0,2,1,1,0,1,0
765.0,0,0,0,0,0,0,0,0,0,0,0,1,53,43,1,1,1,1,0,1,1
766.0,0,0,0,0,0,0,0,0,0,0,0,1,53,43,1,1,1,1,1,0,1
767.0,0,0,0,0,0,0,0,0,0,0,0,1,53,43,1,1,1,1,1,0,1
768.0,0,0,0,0,0,0,0,0,0,0,0,1,54,42,1,1,1,1,1,0,0
769.0,0,0,0,0,0,0,0,0,0,0,0,3,53,42,0,2,2,0,0,0,0
770.0,0,0,0,0,0,0,0,0,0,0,0,3,53,42,0,2,2,0,0,0,0
771.0,0,0,0,0,0,0,0,0,0,0,0,3,53,42,0,1,2,0,0,0,1
772.0,0,0,0,0,0,0,0,0,0,0,0,3,53,42,0,1,1,0,0,1,1
773.0,0,0,0,0,0,0,0,0,0,0,1,3,53,41,0,1,1,0,0,1,1
774.0,0,0,0,0,0,0,0,0,0,0,2,2,52,41,1,1,1,0,0,1,0
775.0,0,0,0,0,0,0,0,0,0,0,2,2,52,41,1,1,1,0,0,1,0
776.0,0,0,0,0,0,0,0,0,0,0,2,2,52,41,1,0,1,0,0,1,1
777.0,0,0,0,0,0,0,0,0,0,0,1,2,52,41,1,0,1,1,1,0,1
778.0,0,0,0,0,0,0,0,0,0,0,1,1,52,41,1,0,0,2,1,1,1
779.0,0,0,0,0,0,0,0,0,0,0,1,2,52,41,0,0,0,2,1,1,0
780.0,0,0,0,0,0,0,0,0,0,0,1,2,52,41,0,1,0,2,0,1,0
781.0,0,0,0,0,0,0,0,0,0,0,1,2,52,41,0,1,0,2,0,1,0
782.0,0,0,0,0,0,0,0,0,0,0,1,2,52,41,0,1,0,2,0,1,0
783.0,0,0,0,0,0,0,0,0,0,0,0,2,52,41,0,1,0,3,1,0,0
784.0,0,0,0,0,0,0,0,0,0,0,1,0,52,42,0,0,0,3,1,0,1
785.0,0,0,0,0,0,0,0,0,0,0,1,0,52,42,0,0,0,3,1,0,1
786.0,0,0,0,0,0,0,0,0,0,0,1,0,52,42,0,1,2,1,0,0,1
787.0,0,0,0,0,0,0,0,0,0,0,1,0,52,42,0,1,2,1,0,0,0
788.0,0,0,0,0,0,0,0,0,0,0,1,1,52,41,0,1,2,1,0,0,0
789.0,0,0,0,0,0,0,0,0,0,0,1,2,51,41,0,1,2,1,0,0,0
790.0,0,0,0,0,0,0,0,0,0,0,0,2,51,41,0,1,2,2,0,0,0
791.0,0,0,0,0,0,0,0,0,0,0,0,2,51,41,0,0,2,2,0,0,1
792.0,0,0,0,0,0,0,0,0,0,0,0,2,51,41,0,0,2,2,0,0,1
793.0,0,0,0,0,0,0,0,0,0,0,0,2,52,40,0,0,1,2,0,1,1
794.0,0,0,0,0,0,0,0,0,0,0,0,2,51,41,0,0,1,1,0,2,0
795.0,0,0,0,0,0,0,0,0,0,0,0,2,51,41,0,0,1,1,0,2,0
796.0,0,0,0,0,0,0,0,0,0,0,0,2,51,41,0,0,1,1,0,2,0
797.0,0,0,0,0,0,0,0,0,0,0,0,2,51,41,0,0,1,1,0,2,0
798.0,0,0,0,0,0,0,0,0,0,0,1,2,51,40,0,0,2,0,0,2,0
799.0,0,0,0,0,0,0,0,0,0,0,1,1,51,40,1,0,2,0,1,1,0
800.0,0,0,0,0,0,0,0,0,0,0,1,0,51,41,1,0,2,0,1,1,0
801.0,0,0,0,0,0,0,0,0,0,0,1,0,51,41,1,0,2,0,1,1,0
802.0,0,0,0,0,0,0,0,0,0,0,1,0,51,41,1,1,1,0,1,1,0
803.0,0,0,0,0,0,0,0,0,0,0,2,0,51,40,1,1,1,0,2,0,0
804.0,0,0,0,0,0,0,0,0,0,0,1,0,51,40,1,1,1,1,2,0,0
805.0,0,0,0,0,0,0,0,0,0,0,2,1,50,40,0,1,1,1,1,1,0
806.0,0,0,0,0,0,0,0,0,0,0,2,1,50,40,0,2,0,1,0,2,0
807.0,0,0,0,0,0,0,0,0,0,0,2,1,50,40,0,1,0,1,0,2,1
808.0,0,0,0,0,0,0,0,0,0,0,2,1,50,39,0,1,0,2,0,2,1
809.0,0,0,0,0,0,0,0,0,0,0,2,1,50,39,0,1,0,2,0,2,1
810.0,0,0,0,0,0,0,0,0,0,0,2,1,49,39,0,2,0,3,0,1,0
811.0,0,0,0,0,0,0,0,0,0,0,2,1,49,39,0,1,0,3,0,1,1
812.0,0,0,0,0,0,0,0,0,0,0,2,1,49,39,0,1,1,2,0,1,1
813.0,0,0,0,0,0,0,0,0,0,0,2,1,49,38,0,1,1,3,0,1,1
814.0,0,0,0,0,0,0,0,0,0,0,2,2,48,38,0,1,1,3,0,1,0
815.0,0,0,0,0,0,0,0,0,0,0,1,1,48,39,0,1,1,4,1,0,0
816.0,0,0,0,0,0,0,0,0,0,0,1,1,48,39,0,1,1,4,1,0,0
817.0,0,0,0,0,0,0,0,0,0,0,0,1,48,39,0,1,2,4,0,0,1
818.0,0,0,0,0,0,0,0,0,0,0,0,2,48,38,0,1,2,4,0,0,1
819.0,0,0,0,0,0,0,0,0,0,0,0,1,48,39,0,1,2,4,0,0,1
820.0,0,0,0,0,0,0,0,0,0,0,0,1,47,40,0,1,1,4,1,0,0
821.0,0,0,0,0,0,0,0,0,0,0,0,1,47,40,0,1,2,3,1,0,0
822.0,0,0,0,0,0,0,0,0,0,0,0,1,47,40,0,1,2,3,1,0,0
823.0,0,0,0,0,0,0,0,0,0,0,2,0,47,39,0,0,2,3,0,1,1
824.0,0,0,0,0,0,0,0,0,0,0,2,1,46,39,0,0,2,3,0,1,1
825.0,0,0,0,0,0,0,0,0,0,0,2,1,46,39,0,0,3,2,0,1,1
826.0,0,0,0,0,0,0,0,0,0,0,2,1,46,39,0,0,2,2,1,1,0
827.0,0,0,0,0,0,0,0,0,0,0,2,1,46,39,0,0,2,2,1,1,0
828.0,0,0,0,0,0,0,0,0,0,0,0,2,46,38,0,1,2,3,0,2,0
829.0,0,0,0,0,0,0,0,0,0,0,0,2,45,39,0,1,2,3,0,2,0
830.0,0,0,0,0,0,0,0,0,0,0,0,2,45,39,0,1,2,3,0,2,0
831.0,0,0,0,0,0,0,0,0,0,0,0,2,45,39,0,1,2,3,0,2,0
832.0,0,0,0,0,0,0,0,0,0,0,0,2,45,39,0,1,2,3,0,1,1
833.0,0,0,0,0,0,0,0,0,0,0,1,2,45,38,0,1,1,3,1,1,1
834.0,0,0,0,0,0,0,0,0,0,0,1,2,44,39,0,1,1,3,1,1,1
835.0,0,0,0,0,0,0,0,0,0,0,1,2,44,39,0,1,1,2,1,2,0
836.0,0,0,0,0,0,0,0,0,0,0,1,2,44,39,0,1,1,2,0,3,0
837.0,0,0,0,0,0,0,0,0,0,0,1,2,44,39,0,1,2,1,1,2,0
838.0,0,0,0,0,0,0,0,0,0,0,1,2,44,38,0,0,2,2,1,2,1
839.0,0,0,0,0,0,0,0,0,0,0,1,1,44,39,0,0,2,2,1,2,1
840.0,0,0,0,0,0,0,0,0,0,0,1,2,43,39,0,1,2,2,0,2,1
841.0,0,0,0,0,0,0,0,0,0,0,1,2,43,39,0,1,2,2,0,2,0
842.0,0,0,0,0,0,0,0,0,0,0,1,2,43,39,0,1,1,2,2,1,0
843.0,0,0,0,0,0,0,0,0,0,0,2,1,43,38,0,1,1,3,2,1,0
844.0,0,0,0,0,0,0,0,0,0,0,2,1,43,38,0,1,2,2,2,1,0
845.0,0,0,0,0,0,0,0,0,0,0,2,1,42,39,0,1,3,1,0,2,1
846.0,0,0,0,0,0,0,0,0,0,0,2,1,42,39,0,1,2,1,0,3,1
847.0,0,0,0,0,0,0,0,0,0,0,2,1,42,39,0,2,2,1,0,2,0
848.0,0,0,0,0,0,0,0,0,0,0,2,1,42,38,0,2,2,2,0,2,0
849.0,0,0,0,0,0,0,0,0,0,0,1,1,42,38,0,2,2,3,0,2,0
850.0,0,0,0,0,0,0,0,0,0,0,2,1,41,38,0,1,2,3,0,2,1
851.0,0,0,0,0,0,0,0,0,0,0,2,1,41,38,0,1,2,3,0,2,1
852.0,0,0,0,0,0,0,0,0,0,0,2,1,41,38,0,2,1,3,0,2,1
853.0,0,0,0,0,0,0,0,0,0,0,1,1,41,38,0,2,1,3,1,2,0
854.0,0,0,0,0,0,0,0,0,0,0,1,2,41,37,0,2,1,3,1,2,0
855.0,0,0,0,0,0,0,0,0,0,0,1,2,40,37,0,1,1,4,1,2,1
856.0,0,0,0,0,0,0,0,0,0,0,1,2,40,37,0,1,2,3,1,2,1
857.0,0,0,0,0,0,0,0,0,0,0,1,2,40,37,0,1,2,3,1,2,1
858.0,0,0,0,0,0,0,0,0,0,0,2,1,40,37,0,1,2,3,1,2,1
859.0,0,0,0,0,0,0,0,0,0,0,4,0,40,36,0,1,2,3,1,2,0
860.0,0,0,0,0,0,0,0,0,0,0,3,0,40,36,0,2,2,4,0,2,0
861.0,0,0,0,0,0,0,0,0,0,0,3,1,39,36,0,1,2,4,0,2,1
862.0,0,0,0,0,0,0,0,0,0,0,3,1,39,36,0,1,3,2,1,2,1
863.0,0,0,0,0,0,0,0,0,0,0,2,1,39,36,0,1,2,3,2,2,1
864.0,0,0,0,0,0,0,0,0,0,0,0,2,39,35,0,1,2,5,2,2,0
865.0,0,0,0,0,0,0,0,0,0,0,0,2,39,35,0,2,2,5,1,2,0
866.0,0,0,0,0,0,0,0,0,0,0,0,3,38,35,0,2,2,5,0,2,1
867.0,0,0,0,0,0,0,0,0,0,0,1,2,38,35,0,2,2,5,0,2,1
868.0,0,0,0,0,0,0,0,0,0,0,1,2,38,35,0,2,2,5,0,2,1
869.0,0,0,0,0,0,0,0,0,0,0,2,2,38,34,0,2,1,5,0,3,0
870.0,0,0,0,0,0,0,0,0,0,0,2,2,38,34,0,1,2,4,0,3,1
871.0,0,0,0,0,0,0,0,0,0,0,1,3,37,34,0,1,2,4,2,2,1
872.0,0,0,0,0,0,0,0,0,0,0,2,2,37,34,0,1,2,4,2,2,1
873.0,0,0,0,0,0,0,0,0,0,0,1,2,37,34,0,1,2,5,2,2,1
874.0,0,0,0,0,0,0,0,0,0,0,2,2,37,33,0,2,2,5,0,3,0
875.0,0,0,0,0,0,0,0,0,0,0,2,3,36,33,0,1,2,5,0,3,1
876.0,0,0,0,0,0,0,0,0,0,0,2,3,36,33,0,2,2,5,0,2,1
877.0,0,0,0,0,0,0,0,0,0,0,2,2,36,33,0,2,1,6,0,3,1
878.0,0,0,0,0,0,0,0,0,0,0,1,2,36,33,0,2,3,5,0,3,0
879.0,0,0,0,0,0,0,0,0,0,0,2,2,36,32,0,2,2,5,0,4,0
880.0,0,0,0,0,0,0,0,0,0,0,2,3,35,32,0,1,2,5,0,4,1
881.0,0,0,0,0,0,0,0,0,0,0,2,3,35,32,0,1,2,5,0,4,1
882.0,0,0,0,0,0,0,0,0,0,0,3,2,35,32,0,1,2,5,1,3,1
883.0,0,0,0,0,0,0,0,0,0,0,2,2,35,32,0,1,2,6,1,3,1
884.0,0,0,0,0,0,0,0,0,0,0,1,3,35,31,0,2,2,7,0,3,0
885.0,0,0,0,0,0,0,0,0,0,0,2,3,34,31,0,2,1,7,1,3,0
886.0,0,0,0,0,0,0,0,0,0,0,2,3,34,31,0,2,1,6,2,2,1
887.0,0,0,0,0,0,0,0,0,0,0,2,2,34,31,0,2,2,6,2,2,1
888.0,0,0,0,0,0,0,0,0,0,0,2,2,34,31,0,2,2,6,1,3,1
889.0,0,0,0,0,0,0,0,0,0,0,2,3,34,30,0,2,2,6,0,4,0
890.0,0,0,0,0,0,0,0,0,0,0,2,3,33,30,0,2,2,7,0,4,0
891.0,0,0,0,0,0,0,0,0,0,0,3,2,33,30,0,1,2,7,0,4,1
892.0,0,0,0,0,0,0,0,0,0,0,2,2,33,30,0,1,2,8,1,3,1
893.0,0,0,0,0,0,0,0,0,0,0,2,2,33,30,0,1,2,8,1,3,1
894.0,0,0,0,0,0,0,0,0,0,0,1,3,32,30,0,1,2,8,1,4,0
895.0,0,0,0,0,0,0,0,0,0,0,2,3,32,29,0,1,2,8,0,4,1
896.0,0,0,0,0,0,0,0,0,0,0,3,2,32,29,0,1,2,7,0,5,1
897.0,0,0,0,0,0,0,0,0,0,0,2,2,32,29,0,1,2,8,0,5,1
898.0,0,0,0,0,0,0,0,0,0,0,2,2,32,29,0,1,2,8,1,4,0
899.0,0,0,0,0,0,0,0,0,0,0,3,2,32,28,0,1,2,8,1,4,0
900.0,0,0,0,0,0,0,0,0,0,0,3,3,31,28,0,0,2,8,1,4,1
901.0,0,0,0,0,0,0,0,0,0,0,2,2,31,28,0,1,2,9,0,5,1
902.0,0,0,0,0,0,0,0,0,0,0,2,2,31,28,0,1,2,9,0,5,1
903.0,0,0,0,0,0,0,0,0,0,0,2,2,31,28,0,2,2,9,0,4,0
904.0,0,0,0,0,0,0,0,0,0,0,1,4,30,27,0,2,1,10,0,5,0
905.0,0,0,0,0,0,0,0,0,0,0,3,2,30,27,0,2,2,9,0,5,0
906.0,0,0,0,0,0,0,0,0,0,0,2,2,30,27,0,1,2,10,0,5,1
907.0,0,0,0,0,0,0,0,0,0,0,2,2,30,27,0,1,2,10,0,5,1
908.0,0,0,0,0,0,0,0,0,0,0,3,2,30,26,0,2,2,9,1,4,1
909.0,0,0,0,0,0,0,0,0,0,0,3,3,29,26,0,2,2,9,1,4,0
910.0,0,0,0,0,0,0,0,0,0,0,3,2,29,26,0,2,2,10,1,4,0
911.0,0,0,0,0,0,0,0,0,0,0,3,1,29,26,0,1,2,11,0,5,1
912.0,0,0,0,0,0,0,0,0,0,0,3,1,29,26,0,1,3,10,0,5,1
913.0,0,0,0,0,0,0,0,0,0,0,2,1,29,26,0,1,2,11,0,6,1
914.0,0,0,0,0,0,0,0,0,0,0,3,2,28,25,0,1,2,11,1,5,1
915.0,0,0,0,0,0,0,0,0,0,0,3,1,28,25,0,1,2,12,1,5,0
916.0,0,0,0,0,0,0,0,0,0,0,2,1,28,25,0,0,2,12,1,6,1
917.0,0,0,0,0,0,0,0,0,0,0,2,1,28,25,0,1,2,12,0,6,1
918.0,0,0,0,0,0,0,0,0,0,0,2,1,28,25,0,1,2,12,1,5,1
919.0,0,0,0,0,0,0,0,0,0,0,1,3,27,24,0,1,2,13,1,5,0
920.0,0,0,0,0,0,0,0,0,0,0,1,2,27,24,0,1,3,13,1,5,0
921.0,0,0,0,0,0,0,0,0,0,0,1,2,27,24,0,2,2,13,0,6,0
922.0,0,0,0,0,0,0,0,0,0,0,1,2,27,24,0,1,2,13,0,6,1
923.0,0,0,0,0,0,0,0,0,0,0,2,3,26,23,0,1,2,13,1,5,1
924.0,0,0,0,0,0,0,0,0,0,0,3,2,26,23,0,1,2,12,2,5,1
925.0,0,0,0,0,0,0,0,0,0,0,3,1,26,23,0,1,2,13,2,5,0
926.0,0,0,0,0,0,0,0,0,0,0,3,1,26,23,0,2,2,13,1,5,0
927.0,0,0,0,0,0,0,0,0,0,0,3,1,26,23,0,1,2,13,0,6,1
928.0,0,0,0,0,0,0,0,0,0,0,2,1,26,22,0,1,2,14,1,6,1
929.0,0,0,0,0,0,0,0,0,0,0,1,2,25,22,0,1,2,15,1,6,0
930.0,0,0,0,0,0,0,0,0,0,0,1,2,25,22,0,1,2,15,1,6,0
931.0,0,0,0,0,0,0,0,0,0,0,1,2,25,22,0,2,1,15,0,7,0
932.0,0,0,0,0,0,0,0,0,0,0,1,2,25,22,0,2,2,14,0,6,1
933.0,0,0,0,0,0,0,0,0,0,0,1,1,25,22,0,2,2,15,0,6,1
934.0,0,0,0,0,0,0,0,0,0,0,2,2,24,21,0,2,2,15,0,6,0
935.0,0,0,0,0,0,0,0,0,0,0,2,2,24,21,0,2,2,15,0,6,0
936.0,0,0,0,0,0,0,0,0,0,0,2,2,24,21,0,1,2,14,1,6,1
937.0,0,0,0,0,0,0,0,0,0,0,2,2,24,21,0,1,2,14,1,6,1
938.0,0,0,0,0,0,0,0,0,0,0,1,2,24,21,0,1,2,15,1,6,1
939.0,0,0,0,0,0,0,0,0,0,0,2,2,23,20,0,2,2,16,0,6,0
940.0,0,0,0,0,0,0,0,0,0,0,2,2,23,20,0,2,2,15,1,6,0
941.0,0,0,0,0,0,0,0,0,0,0,2,2,23,20,0,1,2,15,2,5,1
942.0,0,0,0,0,0,0,0,0,0,0,2,2,23,20,0,1,1,15,2,6,1
943.0,0,0,0,0,0,0,0,0,0,0,0,2,23,20,0,1,1,17,1,7,1
944.0,0,0,0,0,0,0,0,0,0,0,1,3,22,19,0,2,2,16,0,7,0
945.0,0,0,0,0,0,0,0,0,0,0,2,2,22,19,0,2,2,16,0,7,0
946.0,0,0,0,0,0,0,0,0,0,0,2,2,22,19,0,2,2,16,1,6,0
947.0,0,0,0,0,0,0,0,0,0,0,2,2,22,19,0,1,2,15,1,7,1
948.0,0,0,0,0,0,0,0,0,0,0,2,3,21,19,0,1,2,15,1,7,1
949.0,0,0,0,0,0,0,0,0,0,0,1,2,21,19,0,2,2,17,0,7,1
950.0,0,0,0,0,0,0,0,0,0,0,3,1,21,18,0,3,2,17,0,6,0
951.0,0,0,0,0,0,0,0,0,0,0,3,1,21,18,0,3,2,17,0,6,0
952.0,0,0,0,0,0,0,0,0,0,0,3,1,21,18,0,2,1,17,0,7,1
953.0,0,0,0,0,0,0,0,0,0,0,2,1,21,18,0,2,1,17,0,8,1
954.0,0,0,0,0,0,0,0,0,0,0,2,1,20,18,0,2,2,17,0,8,1
955.0,0,0,0,0,0,0,0,0,0,0,1,2,20,17,0,2,2,18,1,7,0
956.0,0,0,0,0,0,0,0,0,0,0,1,2,20,17,0,2,1,18,1,8,0
957.0,0,0,0,0,0,0,0,0,0,0,1,2,20,17,0,2,1,18,1,8,0
958.0,0,0,0,0,0,0,0,0,0,0,1,2,20,17,0,2,1,18,0,8,1
959.0,0,0,0,0,0,0,0,0,0,0,2,1,19,17,0,2,1,19,0,8,1
960.0,0,0,0,0,0,0,0,0,0,0,3,1,19,16,0,2,1,18,1,8,1
961.0,0,0,0,0,0,0,0,0,0,0,3,1,19,16,0,2,1,18,1,8,0
962.0,0,0,0,0,0,0,0,0,0,0,3,1,19,16,0,2,1,17,2,8,0
963.0,0,0,0,0,0,0,0,0,0,0,3,1,19,16,0,2,1,17,1,8,1
964.0,0,0,0,0,0,0,0,0,0,0,4,0,19,16,0,2,1,17,1,8,1
965.0,0,0,0,0,0,0,0,0,0,0,2,1,18,15,0,2,1,20,1,8,1
966.0,0,0,0,0,0,0,0,0,0,0,2,1,18,15,0,2,1,20,1,8,0
967.0,0,0,0,0,0,0,0,0,0,0,2,1,18,15,0,2,1,20,1,8,0
968.0,0,0,0,0,0,0,0,0,0,0,2,1,18,15,0,2,2,19,0,8,1
969.0,0,0,0,0,0,0,0,0,0,0,1,1,18,15,0,2,1,20,1,8,1
970.0,0,0,0,0,0,0,0,0,0,0,2,1,17,14,0,2,1,20,1,9,1
971.0,0,0,0,0,0,0,0,0,0,0,2,1,17,14,0,2,1,20,1,9,0
972.0,0,0,0,0,0,0,0,0,0,0,2,1,17,14,0,2,1,20,1,9,0
973.0,0,0,0,0,0,0,0,0,0,0,2,1,17,14,0,2,1,20,0,9,1
974.0,0,0,0,0,0,0,0,0,0,0,2,2,16,14,0,2,1,20,0,9,1
975.0,0,0,0,0,0,0,0,0,0,0,1,1,16,14,0,3,1,22,0,8,1
976.0,0,0,0,0,0,0,0,0,0,0,1,1,16,13,0,3,0,22,1,9,0
977.0,0,0,0,0,0,0,0,0,0,0,1,1,16,13,0,2,0,22,1,9,1
978.0,0,0,0,0,0,0,0,0,0,0,1,1,16,13,0,2,0,22,1,9,1
979.0,0,0,0,0,0,0,0,0,0,0,1,2,15,13,0,2,0,21,0,11,1
980.0,0,0,0,0,0,0,0,0,0,0,1,1,15,13,0,2,0,22,1,10,1
981.0,0,0,0,0,0,0,0,0,0,0,2,1,15,12,0,2,0,22,1,10,0
982.0,0,0,0,0,0,0,0,0,0,0,2,1,15,12,0,2,0,22,1,10,0
983.0,0,0,0,0,0,0,0,0,0,0,2,1,15,12,0,2,0,21,1,10,1
984.0,0,0,0,0,0,0,0,0,0,0,2,1,15,12,0,2,0,21,1,10,1
985.0,0,0,0,0,0,0,0,0,0,0,2,1,14,12,0,2,0,22,2,9,1
986.0,0,0,0,0,0,0,0,0,0,0,1,1,14,12,0,2,0,23,1,10,0
987.0,0,0,0,0,0,0,0,0,0,0,1,1,14,11,0,1,0,23,1,11,1
988.0,0,0,0,0,0,0,0,0,0,0,1,1,14,11,0,2,0,23,0,11,1
989.0,0,0,0,0,0,0,0,0,0,0,1,1,14,11,0,2,0,22,0,12,1
990.0,0,0,0,0,0,0,0,0,0,0,1,1,13,11,0,2,1,23,0,11,0
991.0,0,0,0,0,0,0,0,0,0,0,1,1,13,10,0,2,1,24,0,11,0
992.0,0,0,0,0,0,0,0,0,0,0,1,1,13,10,0,1,1,24,0,11,1
993.0,0,0,0,0,0,0,0,0,0,0,1,1,13,10,0,1,1,24,0,11,1
994.0,0,0,0,0,0,0,0,0,0,0,1,2,12,10,0,1,1,23,0,12,1
995.0,0,0,0,0,0,0,0,0,0,0,0,1,12,10,0,1,1,25,1,11,0
996.0,0,0,0,0,0,0,0,0,0,0,0,1,12,10,0,1,1,25,1,11,0
997.0,0,0,0,0,0,0,0,0,0,0,0,2,12,9,0,1,1,24,1,12,0
998.0,0,0,0,0,0,0,0,0,0,0,0,2,12,9,0,1,0,24,1,12,1
999.0,0,0,0,0,0,0,0,0,0,0,0,2,11,9,0,1,0,25,1,12,1
1000.0,0,0,0,0,0,0,0,0,0,0,0,2,11,9,0,1,1,24,1,12,1
1001.0,0,0,0,0,0,0,0,0,0,0,0,2,11,9,0,2,1,24,0,12,0
1002.0,0,0,0,0,0,0,0,0,0,0,1,1,11,8,0,2,1,25,0,12,0
1003.0,0,0,0,0,0,0,0,0,0,0,1,1,11,8,0,1,1,25,0,12,1
1004.0,0,0,0,0,0,0,0,0,0,0,2,1,10,8,0,2,1,25,0,11,1
1005.0,0,0,0,0,0,0,0,0,0,0,2,1,10,8,0,2,1,25,0,11,1
1006.0,0,0,0,0,0,0,0,0,0,0,2,1,10,7,0,2,1,25,0,12,0
1007.0,0,0,0,0,0,0,0,0,0,0,1,1,10,7,0,1,1,26,0,12,1
1008.0,0,0,0,0,0,0,0,0,0,0,1,1,10,7,0,1,0,25,1,13,1
1009.0,0,0,0,0,0,0,0,0,0,0,0,1,10,7,0,1,0,26,2,12,1
1010.0,0,0,0,0,0,0,0,0,0,0,1,0,9,7,0,1,0,27,2,12,0
1011.0,0,0,0,0,0,0,0,0,0,0,1,0,9,6,0,2,0,28,1,12,0
1012.0,0,0,0,0,0,0,0,0,0,0,1,0,9,6,0,3,0,28,0,12,0
1013.0,0,0,0,0,0,0,0,0,0,0,1,0,9,6,0,2,0,28,0,12,1
1014.0,0,0,0,0,0,0,0,0,0,0,1,0,8,6,1,2,0,27,0,13,1
1015.0,0,0,0,0,0,0,0,0,0,0,0,0,8,6,1,2,1,28,0,12,1
1016.0,0,0,0,0,0,0,0,0,0,0,0,0,8,5,1,2,1,28,0,13,0
1017.0,0,0,0,0,0,0,0,0,0,0,0,0,8,5,1,2,1,28,0,13,0
1018.0,0,0,0,0,0,0,0,0,0,0,0,0,8,5,1,1,1,28,0,13,1
1019.0,0,0,0,0,0,0,0,0,0,0,0,1,8,5,0,1,1,28,0,13,1
1020.0,0,0,0,0,0,0,0,0,0,0,0,1,7,5,1,1,2,28,0,12,1
1021.0,0,0,0,0,0,0,0,0,0,0,0,2,7,4,1,1,2,28,0,12,0
1022.0,0,0,0,0,0,0,0,0,0,0,0,2,7,4,1,1,2,28,0,12,0
1023.0,0,0,0,0,0,0,0,0,0,0,0,2,7,4,1,0,1,26,1,14,1
1024.0,0,0,0,0,0,0,0,0,0,0,1,1,7,4,1,0,1,26,1,14,1
1025.0,0,0,0,0,0,0,0,0,0,0,2,2,6,4,0,0,2,26,1,13,1
1026.0,0,0,0,0,0,0,0,0,0,0,2,2,6,3,0,0,2,27,1,13,0
1027.0,0,0,0,0,0,0,0,0,0,0,3,1,6,3,0,1,2,27,0,13,0
1028.0,0,0,0,0,0,0,0,0,0,0,3,1,6,3,0,1,2,27,0,13,0
1029.0,0,0,0,0,0,0,0,0,0,0,2,1,6,3,0,2,1,28,1,12,0
1030.0,0,0,0,0,0,0,0,0,0,0,2,0,6,3,0,2,1,29,1,12,0
1031.0,0,0,0,0,0,0,0,0,0,0,1,0,5,2,0,1,1,30,1,14,1
1032.0,0,0,0,0,0,0,0,0,0,0,1,0,5,2,0,3,0,30,0,14,1
1033.0,0,0,0,0,0,0,0,0,0,0,1,0,5,2,0,3,0,30,0,14,1
1034.0,0,0,0,0,0,0,0,0,0,0,1,0,5,2,0,3,0,30,0,14,0
1035.0,0,0,0,0,0,0,0,0,0,0,0,0,4,2,0,3,1,32,0,13,0
1036.0,0,0,0,0,0,0,0,0,0,0,0,0,4,1,0,2,1,33,0,13,1
1037.0,0,0,0,0,0,0,0,0,0,0,0,0,4,1,0,2,1,33,0,13,1
1038.0,0,0,0,0,0,0,0,0,0,0,0,0,4,1,0,2,1,33,0,13,1
1039.0,0,0,0,0,0,0,0,0,0,0,0,0,4,1,0,2,1,33,0,13,0
1040.0,0,0,0,0,0,0,0,0,0,0,0,0,4,1,0,2,2,31,0,14,0
1041.0,0,0,0,0,0,0,0,0,0,0,1,0,3,0,0,1,2,32,1,14,0
1042.0,0,0,0,0,0,0,0,0,0,0,1,0,3,0,0,1,2,32,1,14,0
1043.0,0,0,0,0,0,0,0,0,0,0,1,0,3,0,0,1,2,32,1,14,0
1044.0,0,0,0,0,0,0,0,0,0,0,1,0,3,0,0,2,2,32,0,13,1
1045.0,0,0,0,0,0,0,0,0,0,0,1,0,3,0,0,2,2,32,0,13,1
1046.0,0,0,0,0,0,0,0,0,0,0,0,1,2,0,0,2,2,33,0,13,1
1047.0,0,0,0,0,0,0,0,0,0,0,0,1,2,0,0,1,2,32,0,14,1
1048.0,0,0,0,0,0,0,0,0,0,0,0,1,2,0,0,2,1,31,0,15,1
1049.0,0,0,0,0,0,0,0,0,0,0,0,1,2,0,0,2,2,31,0,14,1
1050.0,0,0,0,0,0,0,0,0,0,0,0,1,2,0,0,2,2,31,0,14,0
1051.0,0,0,0,0,0,0,0,0,0,0,1,0,2,0,0,2,2,31,0,14,0
1052.0,0,0,0,0,0,0,0,0,0,0,2,0,1,0,0,2,1,31,0,14,1
1053.0,0,0,0,0,0,0,0,0,0,0,2,0,1,0,0,2,1,31,0,14,1
1054.0,0,0,0,0,0,0,0,0,0,0,2,0,1,0,0,2,2,31,0,13,1
1055.0,0,0,0,0,0,0,0,0,0,0,1,0,1,0,0,2,2,31,0,14,0
1056.0,0,0,0,0,0,0,0,0,0,0,2,0,0,0,0,2,2,30,0,15,0
1057.0,0,0,0,0,0,0,0,0,0,0,1,0,0,0,0,1,2,31,1,15,0
1058.0,0,0,0,0,0,0,0,0,0,0,1,0,0,0,0,1,1,31,2,15,0
1059.0,0,0,0,0,0,0,0,0,0,0,1,0,0,0,0,1,2,31,2,14,0
1060.0,0,0,0,0,0,0,0,0,0,0,1,0,0,0,0,1,2,31,1,14,1
1061.0,0,0,0,0,0,0,0,0,0,0,1,0,0,0,0,2,2,31,0,14,1
1062.0,0,0,0,0,0,0,0,0,0,0,0,0,0,0,0,2,1,32,1,14,1
1063.0,0,0,0,0,0,0,0,0,0,0,1,0,0,0,0,2,1,31,1,14,1
1064.0,0,0,0,0,0,0,0,0,0,0,1,0,0,0,0,2,2,30,1,14,0
1065.0,0,0,0,0,0,0,0,0,0,0,1,0,0,0,0,2,2,30,0,14,1
1066.0,0,0,0,0,0,0,0,0,0,0,1,0,0,0,0,2,2,30,0,14,1
1067.0,0,0,0,0,0,0,0,0,0,0,1,0,0,0,0,1,2,30,0,14,2
1068.0,0,0,0,0,0,0,0,0,0,0,1,0,0,0,0,2,1,30,0,14,2
1069.0,0,0,0,0,0,0,0,0,0,0,0,0,0,0,0,2,2,30,0,14,1
1070.0,0,0,0,0,0,0,0,0,0,0,0,0,0,0,0,2,2,30,0,14,0
1071.0,0,0,0,0,0,0,0,0,0,0,0,0,0,0,0,2,2,30,0,14,0
1072.0,0,0,0,0,0,0,0,0,0,0,0,0,0,0,0,1,1,28,2,16,0
1073.0,0,0,0,0,0,0,0,0,0,0,0,0,0,0,0,1,2,28,2,15,0
1074.0,0,0,0,0,0,0,0,0,0,0,0,0,0,0,0,1,2,28,2,15,0
1075.0,0,0,0,0,0,0,0,0,0,0,0,0,0,0,0,2,2,28,0,15,1
1076.0,0,0,0,0,0,0,0,0,0,0,0,0,0,0,0,2,2,28,0,15,1
1077.0,0,0,0,0,0,0,0,0,0,0,0,0,0,0,0,1,1,28,2,15,1
1078.0,0,0,0,0,0,0,0,0,0,0,0,0,0,0,0,1,2,28,2,14,0
1079.0,0,0,0,0,0,0,0,0,0,0,0,0,0,0,0,1,2,28,2,14,0
1080.0,0,0,0,0,0,0,0,0,0,0,1,0,0,0,0,2,2,26,0,15,1
1081.0,0,0,0,0,0,0,0,0,0,0,1,0,0,0,0,2,1,26,1,15,1
1082.0,0,0,0,0,0,0,0,0,0,0,1,0,0,0,0,2,1,26,1,15,1
1083.0,0,0,0,0,0,0,0,0,0,0,1,0,0,0,0,1,1,26,1,15,1
1084.0,0,0,0,0,0,0,0,0,0,0,1,0,0,0,0,2,2,26,0,14,1
1085.0,0,0,0,0,0,0,0,0,0,0,0,0,0,0,0,2,2,26,0,15,0
1086.0,0,0,0,0,0,0,0,0,0,0,0,0,0,0,0,2,1,26,1,15,0
1087.0,0,0,0,0,0,0,0,0,0,0,0,0,0,0,0,1,1,26,1,15,1
1088.0,0,0,0,0,0,0,0,0,0,0,1,0,0,0,0,1,1,25,1,15,1
1089.0,0,0,0,0,0,0,0,0,0,0,1,0,0,0,0,2,1,24,1,15,1
1090.0,0,0,0,0,0,0,0,0,0,0,1,0,0,0,0,2,1,24,1,15,0
1091.0,0,0,0,0,0,0,0,0,0,0,1,0,0,0,0,2,0,24,2,15,0
1092.0,0,0,0,0,0,0,0,0,0,0,0,0,0,0,0,1,1,24,1,16,1
1093.0,0,0,0,0,0,0,0,0,0,0,0,0,0,0,0,1,1,24,1,16,1
1094.0,0,0,0,0,0,0,0,0,0,0,0,0,0,0,0,2,1,24,0,16,0
1095.0,0,0,0,0,0,0,0,0,0,0,1,0,0,0,0,2,2,23,0,15,0
1096.0,0,0,0,0,0,0,0,0,0,0,2,0,0,0,0,2,2,22,0,15,0
1097.0,0,0,0,0,0,0,0,0,0,0,2,0,0,0,0,1,2,22,0,15,1
1098.0,0,0,0,0,0,0,0,0,0,0,2,0,0,0,0,1,2,22,0,15,1
1099.0,0,0,0,0,0,0,0,0,0,0,2,0,0,0,0,2,1,22,0,15,1
1100.0,0,0,0,0,0,0,0,0,0,0,2,0,0,0,0,2,2,22,0,14,0
1101.0,0,0,0,0,0,0,0,0,0,0,0,0,0,0,0,2,2,22,0,16,0
1102.0,0,0,0,0,0,0,0,0,0,0,0,0,0,0,0,2,2,22,0,16,0
1103.0,0,0,0,0,0,0,0,0,0,0,1,0,0,0,0,1,1,21,1,16,1
1104.0,0,0,0,0,0,0,0,0,0,0,2,0,0,0,0,1,1,20,2,15,1
1105.0,0,0,0,0,0,0,0,0,0,0,2,0,0,0,0,1,1,20,2,15,1
1106.0,0,0,0,0,0,0,0,0,0,0,2,0,0,0,0,2,1,20,1,15,0
1107.0,0,0,0,0,0,0,0,0,0,0,2,0,0,0,0,2,2,20,0,15,0
1108.0,0,0,0,0,0,0,0,0,0,0,1,0,0,0,0,1,1,20,1,16,1
1109.0,0,0,0,0,0,0,0,0,0,0,0,0,0,0,0,1,1,20,2,16,1
1110.0,0,0,0,0,0,0,0,0,0,0,0,0,0,0,0,1,1,20,2,16,1
1111.0,0,0,0,0,0,0,0,0,0,0,0,0,0,0,0,2,1,18,1,18,0
1112.0,0,0,0,0,0,0,0,0,0,0,0,0,0,0,0,2,2,18,0,18,0
1113.0,0,0,0,0,0,0,0,0,0,0,0,0,0,0,0,1,2,18,1,17,1
1114.0,0,0,0,0,0,0,0,0,0,0,0,0,0,0,0,1,2,18,1,17,1
1115.0,0,0,0,0,0,0,0,0,0,0,0,0,0,0,0,1,2,18,1,17,1
1116.0,0,0,0,0,0,0,0,0,0,0,0,0,0,0,0,2,1,18,1,17,0
1117.0,0,0,0,0,0,0,0,0,0,0,0,0,0,0,0,2,2,18,0,17,0
1118.0,0,0,0,0,0,0,0,0,0,0,0,0,0,0,0,1,3,17,1,16,1
1119.0,0,0,0,0,0,0,0,0,0,0,0,0,0,0,0,2,2,17,1,16,1
1120.0,0,0,0,0,0,0,0,0,0,0,1,0,0,0,0,2,2,16,1,16,1
1121.0,0,0,0,0,0,0,0,0,0,0,1,0,0,0,0,2,3,16,0,16,0
1122.0,0,0,0,0,0,0,0,0,0,0,1,0,0,0,0,2,3,16,0,16,0
1123.0,0,0,0,0,0,0,0,0,0,0,1,0,0,0,0,2,2,16,0,16,1
1124.0,0,0,0,0,0,0,0,0,0,0,0,0,0,0,0,2,3,16,0,16,1
1125.0,0,0,0,0,0,0,0,0,0,0,0,0,0,0,0,2,3,16,0,16,1
1126.0,0,0,0,0,0,0,0,0,0,0,0,1,0,0,0,2,3,15,0,16,0
1127.0,0,0,0,0,0,0,0,0,0,0,1,1,0,0,0,2,2,15,0,16,0
1128.0,0,0,0,0,0,0,0,0,0,0,2,1,0,0,0,1,2,14,0,16,1
1129.0,0,0,0,0,0,0,0,0,0,0,2,1,0,0,0,2,1,14,0,16,1
1130.0,0,0,0,0,0,0,0,0,0,0,2,0,0,0,0,2,2,14,0,16,1
1131.0,0,0,0,0,0,0,0,0,0,0,2,0,0,0,0,2,2,14,0,16,0
1132.0,0,0,0,0,0,0,0,0,0,0,1,0,0,0,0,2,1,14,1,17,0
1133.0,0,0,0,0,0,0,0,0,0,0,2,0,0,0,0,1,1,13,1,17,1
1134.0,0,0,0,0,0,0,0,0,0,0,1,0,0,0,0,1,2,13,1,17,1
1135.0,0,0,0,0,0,0,0,0,0,0,1,0,0,0,0,2,2,13,0,17,1
1136.0,0,0,0,0,0,0,0,0,0,0,1,0,0,0,0,2,2,12,0,18,0
1137.0,0,0,0,0,0,0,0,0,0,0,1,0,0,0,0,2,2,12,0,18,0
1138.0,0,0,0,0,0,0,0,0,0,0,0,0,0,0,0,1,1,12,1,19,1
1139.0,0,0,0,0,0,0,0,0,0,0,0,0,0,0,0,1,1,12,2,18,1
1140.0,0,0,0,0,0,0,0,0,0,0,0,0,0,0,0,2,1,12,1,18,1
1141.0,0,0,0,0,0,0,0,0,0,0,0,0,0,0,0,2,2,11,1,18,0
1142.0,0,0,0,0,0,0,0,0,0,0,0,0,0,0,0,1,2,11,1,18,1
1143.0,0,0,0,0,0,0,0,0,0,0,0,1,0,0,0,1,2,10,1,18,1
1144.0,0,0,0,0,0,0,0,0,0,0,0,1,0,0,0,1,2,10,1,18,1
1145.0,0,0,0,0,0,0,0,0,0,0,0,1,0,0,0,1,3,10,1,17,0
1146.0,0,0,0,0,0,0,0,0,0,0,0,1,0,0,0,2,3,10,0,17,0
1147.0,0,0,0,0,0,0,0,0,0,0,0,1,0,0,0,2,3,10,0,17,0
1148.0,0,0,0,0,0,0,0,0,0,0,1,0,0,0,0,1,4,9,0,17,1
1149.0,0,0,0,0,0,0,0,0,0,0,1,0,0,0,0,2,4,9,0,16,1
1150.0,0,0,0,0,0,0,0,0,0,0,2,0,0,0,0,2,3,9,0,16,1
1151.0,0,0,0,0,0,0,0,0,0,0,2,0,0,0,0,2,4,8,0,16,0
1152.0,0,0,0,0,0,0,0,0,0,0,2,0,0,0,0,2,3,8,1,16,0
1153.0,0,0,0,0,0,0,0,0,0,0,1,0,0,0,0,1,4,8,1,16,1
1154.0,0,0,0,0,0,0,0,0,0,0,1,0,0,0,0,1,4,8,1,16,1
1155.0,0,0,0,0,0,0,0,0,0,0,0,0,0,0,0,2,5,8,0,16,1
1156.0,0,0,0,0,0,0,0,0,0,0,0,0,0,0,0,2,6,7,0,16,0
1157.0,0,0,0,0,0,0,0,0,0,0,0,0,0,0,0,2,5,7,0,17,0
1158.0,0,0,0,0,0,0,0,0,0,0,0,0,0,0,0,2,4,7,0,18,0
1159.0,0,0,0,0,0,0,0,0,0,0,0,0,0,0,0,1,5,6,1,17,1
1160.0,0,0,0,0,0,0,0,0,0,0,0,0,0,0,0,1,5,6,1,17,1
1161.0,0,0,0,0,0,0,0,0,0,0,0,0,0,0,0,2,5,6,0,17,1
1162.0,0,0,0,0,0,0,0,0,0,0,0,0,0,0,0,2,4,6,0,18,0
1163.0,0,0,0,0,0,0,0,0,0,0,0,0,0,0,0,2,4,6,0,18,0
1164.0,0,0,0,0,0,0,0,0,0,0,0,0,0,0,0,2,5,5,1,17,0
1165.0,0,0,0,0,0,0,0,0,0,0,0,0,0,0,0,1,5,5,1,17,1
1166.0,0,0,0,0,0,0,0,0,0,0,0,0,0,0,0,1,5,5,1,17,1
1167.0,0,0,0,0,0,0,0,0,0,0,0,0,0,0,0,2,3,5,0,19,0
1168.0,0,0,0,0,0,0,0,0,0,0,0,0,0,0,0,2,5,4,0,18,0
1169.0,0,0,0,0,0,0,0,0,0,0,0,0,0,0,0,2,5,4,0,18,0
1170.0,0,0,0,0,0,0,0,0,0,0,0,0,0,0,0,1,5,4,0,18,1
1171.0,0,0,0,0,0,0,0,0,0,0,0,0,0,0,0,1,4,4,1,18,1
1172.0,0,0,0,0,0,0,0,0,0,0,0,0,0,0,0,1,5,3,1,18,0
1173.0,0,0,0,0,0,0,0,0,0,0,0,0,0,0,0,1,5,3,2,17,0
1174.0,0,0,0,0,0,0,0,0,0,0,1,0,0,0,0,2,4,3,1,17,0
1175.0,0,0,0,0,0,0,0,0,0,0,2,0,0,0,0,1,3,3,1,17,1
1176.0,0,0,0,0,0,0,0,0,0,0,2,0,0,0,0,2,3,3,0,17,1
1177.0,0,0,0,0,0,0,0,0,0,0,2,0,0,0,0,2,4,2,0,17,1
1178.0,0,0,0,0,0,0,0,0,0,0,2,0,0,0,0,2,4,2,0,17,0
1179.0,0,0,0,0,0,0,0,0,0,0,1,0,0,0,0,2,4,2,1,17,0
1180.0,0,0,0,0,0,0,0,0,0,0,0,0,0,0,0,1,4,1,2,18,1
1181.0,0,0,0,0,0,0,0,0,0,0,0,0,0,0,0,1,4,1,2,18,1
1182.0,0,0,0,0,0,0,0,0,0,0,0,0,0,0,0,2,4,1,1,18,1
1183.0,0,0,0,0,0,0,0,0,0,0,0,0,0,0,0,2,4,0,2,18,0
1184.0,0,0,0,0,0,0,0,0,0,0,0,0,0,0,0,2,5,0,1,18,0
1185.0,0,0,0,0,0,0,0,0,0,0,0,0,0,0,0,1,5,0,1,18,1
1186.0,0,0,0,0,0,0,0,0,0,0,0,0,0,0,0,2,3,0,1,19,1
1187.0,0,0,0,0,0,0,0,0,0,0,0,0,0,0,0,2,3,0,1,19,1
1188.0,0,0,0,0,0,0,0,0,0,0,0,0,0,0,0,2,3,0,1,19,0
1189.0,0,0,0,0,0,0,0,0,0,0,0,0,0,0,0,3,3,0,0,19,0
1190.0,0,0,0,0,0,0,0,0,0,0,0,0,0,0,0,2,3,0,0,19,1
1191.0,0,0,0,0,0,0,0,0,0,0,0,0,0,0,0,2,3,0,0,19,1
1192.0,0,0,0,0,0,0,0,0,0,0,0,0,0,0,0,2,2,0,0,20,1
1193.0,0,0,0,0,0,0,0,0,0,0,0,0,0,0,0,2,2,0,0,20,0
1194.0,0,0,0,0,0,0,0,0,0,0,0,0,0,0,0,2,3,0,0,19,0
1195.0,0,0,0,0,0,0,0,0,0,0,0,0,0,0,0,1,2,0,1,19,1
1196.0,0,0,0,0,0,0,0,0,0,0,0,0,0,0,0,1,2,0,1,19,1
1197.0,0,0,0,0,0,0,0,0,0,0,0,0,0,0,0,1,2,0,1,19,1
1198.0,0,0,0,0,0,0,0,0,0,0,0,0,0,0,0,2,1,0,1,19,0
1199.0,0,0,0,0,0,0,0,0,0,0,0,0,0,0,0,1,2,0,1,18,1
1200.0,0,0,0,0,0,0,0,0,0,0,0,0,0,0,0,1,2,0,1,18,1
1201.0,0,0,0,0,0,0,0,0,0,0,0,0,0,0,0,2,2,0,0,18,1
1202.0,0,0,0,0,0,0,0,0,0,0,0,0,0,0,0,2,2,0,0,18,0
1203.0,0,0,0,0,0,0,0,0,0,0,0,0,0,0,0,2,2,0,1,17,0
1204.0,0,0,0,0,0,0,0,0,0,0,0,0,0,0,0,1,2,0,1,17,1
1205.0,0,0,0,0,0,0,0,0,0,0,0,0,0,0,0,1,2,0,1,17,1
1206.0,0,0,0,0,0,0,0,0,0,0,0,0,0,0,0,2,1,0,1,17,1
1207.0,0,0,0,0,0,0,0,0,0,0,0,0,0,0,0,2,1,0,1,17,0
1208.0,0,0,0,0,0,0,0,0,0,0,0,0,0,0,0,3,1,0,0,17,0
1209.0,0,0,0,0,0,0,0,0,0,0,0,0,0,0,0,3,2,0,0,16,0
1210.0,0,0,0,0,0,0,0,0,0,0,0,0,0,0,0,2,2,0,0,16,1
1211.0,0,0,0,0,0,0,0,0,0,0,0,0,0,0,0,2,1,0,1,16,1
1212.0,0,0,0,0,0,0,0,0,0,0,0,0,0,0,0,2,1,0,1,16,0
1213.0,0,0,0,0,0,0,0,0,0,0,0,0,0,0,0,2,1,0,1,16,0
1214.0,0,0,0,0,0,0,0,0,0,0,0,0,0,0,0,2,1,0,1,15,1
1215.0,0,0,0,0,0,0,0,0,0,0,0,0,0,0,0,2,1,0,1,15,1
1216.0,0,0,0,0,0,0,0,0,0,0,0,0,0,0,0,2,0,0,2,15,1
1217.0,0,0,0,0,0,0,0,0,0,0,0,0,0,0,0,3,0,0,1,15,0
1218.0,0,0,0,0,0,0,0,0,0,0,0,0,0,0,0,3,0,0,1,15,0
1219.0,0,0,0,0,0,0,0,0,0,0,0,0,0,0,0,3,1,0,0,14,1
1220.0,0,0,0,0,0,0,0,0,0,0,0,0,0,0,0,3,1,0,0,14,1
1221.0,0,0,0,0,0,0,0,0,0,0,0,0,0,0,0,3,1,0,0,14,1
1222.0,0,0,0,0,0,0,0,0,0,0,0,0,0,0,0,3,1,0,0,14,0
1223.0,0,0,0,0,0,0,0,0,0,0,0,0,0,0,0,3,1,0,0,14,0
1224.0,0,0,0,0,0,0,0,0,0,0,0,0,0,0,0,2,2,0,0,13,1
1225.0,0,0,0,0,0,0,0,0,0,0,0,0,0,0,0,2,2,0,0,13,1
1226.0,0,0,0,0,0,0,0,0,0,0,0,0,0,0,0,2,2,0,0,13,1
1227.0,0,0,0,0,0,0,0,0,0,0,0,0,0,0,0,2,1,0,1,13,1
1228.0,0,0,0,0,0,0,0,0,0,0,0,0,0,0,0,2,2,0,1,12,0
1229.0,0,0,0,0,0,0,0,0,0,0,0,0,0,0,0,1,2,0,1,12,1
1230.0,0,0,0,0,0,0,0,0,0,0,0,0,0,0,0,2,2,0,0,12,1
1231.0,0,0,0,0,0,0,0,0,0,0,0,0,0,0,0,2,2,0,0,12,1
1232.0,0,0,0,0,0,0,0,0,0,0,0,0,0,0,0,2,1,0,1,12,0
1233.0,0,0,0,0,0,0,0,0,0,0,0,0,0,0,0,2,1,0,2,11,0
1234.0,0,0,0,0,0,0,0,0,0,0,0,0,0,0,0,2,1,0,2,11,0
1235.0,0,0,0,0,0,0,0,0,0,0,0,0,0,0,0,2,1,0,1,11,1
1236.0,0,0,0,0,0,0,0,0,0,0,0,0,0,0,0,3,0,0,1,11,1
1237.0,0,0,0,0,0,0,0,0,0,0,0,0,0,0,0,3,0,0,1,11,1
1238.0,0,0,0,0,0,0,0,0,0,0,0,0,0,0,0,3,0,0,2,10,0
1239.0,0,0,0,0,0,0,0,0,0,0,0,0,0,0,0,3,0,0,1,10,1
1240.0,0,0,0,0,0,0,0,0,0,0,0,0,0,0,0,3,0,0,1,10,1
1241.0,0,0,0,0,0,0,0,0,0,0,0,0,0,0,0,4,0,0,0,10,1
1242.0,0,0,0,0,0,0,0,0,0,0,0,0,0,0,0,4,0,0,0,10,0
1243.0,0,0,0,0,0,0,0,0,0,0,0,0,0,0,0,4,0,0,0,10,0
1244.0,0,0,0,0,0,0,0,0,0,0,0,0,0,0,0,3,0,0,1,9,1
1245.0,0,0,0,0,0,0,0,0,0,0,0,0,0,0,0,3,0,0,1,9,1
1246.0,0,0,0,0,0,0,0,0,0,0,0,0,0,0,0,3,0,0,1,9,1
1247.0,0,0,0,0,0,0,0,0,0,0,0,0,0,0,0,4,0,0,0,9,0
1248.0,0,0,0,0,0,0,0,0,0,0,0,0,0,0,0,4,0,0,1,8,0
1249.0,0,0,0,0,0,0,0,0,0,0,0,0,0,0,0,4,0,0,1,8,0
1250.0,0,0,0,0,0,0,0,0,0,0,0,0,0,0,0,3,0,0,1,8,1
1251.0,0,0,0,0,0,0,0,0,0,0,0,0,0,0,0,4,0,0,0,8,1
1252.0,0,0,0,0,0,0,0,0,0,0,0,0,0,0,0,4,0,0,0,8,1
1253.0,0,0,0,0,0,0,0,0,0,0,0,0,0,0,0,4,0,0,1,7,0
1254.0,0,0,0,0,0,0,0,0,0,0,0,0,0,0,0,4,0,0,1,7,0
1255.0,0,0,0,0,0,0,0,0,0,0,0,0,0,0,0,3,0,0,1,7,1
1256.0,0,0,0,0,0,0,0,0,0,0,0,0,0,0,0,4,0,0,0,7,1
1257.0,0,0,0,0,0,0,0,0,0,0,0,0,0,0,0,4,0,0,0,7,1
1258.0,0,0,0,0,0,0,0,0,0,0,1,0,0,0,0,4,0,0,0,6,0
1259.0,0,0,0,0,0,0,0,0,0,0,1,0,0,0,0,4,0,0,0,6,0
1260.0,0,0,0,0,0,0,0,0,0,0,1,0,0,0,0,3,0,0,0,6,1
1261.0,0,0,0,0,0,0,0,0,0,0,1,0,0,0,0,3,0,0,0,6,1
1262.0,0,0,0,0,0,0,0,0,0,0,1,0,0,0,0,3,0,0,0,6,1
1263.0,0,0,0,0,0,0,0,0,0,0,0,0,0,0,0,3,0,0,2,5,0
1264.0,0,0,0,0,0,0,0,0,0,0,0,0,0,0,0,3,0,0,2,5,0
1265.0,0,0,0,0,0,0,0,0,0,0,0,0,0,0,0,2,0,0,2,5,1
1266.0,0,0,0,0,0,0,0,0,0,0,0,0,0,0,0,4,0,0,0,5,1
1267.0,0,0,0,0,0,0,0,0,0,0,0,0,0,0,0,4,0,0,0,5,1
1268.0,0,0,0,0,0,0,0,0,0,0,0,0,0,0,0,4,0,0,1,4,1
1269.0,0,0,0,0,0,0,0,0,0,0,0,0,0,0,0,4,0,0,1,4,0
1270.0,0,0,0,0,0,0,0,0,0,0,0,0,0,0,0,4,0,0,1,4,0
1271.0,0,0,0,0,0,0,0,0,0,0,0,0,0,0,0,4,0,0,0,4,1
1272.0,0,0,0,0,0,0,0,0,0,0,0,0,0,0,0,5,0,0,0,3,1
1273.0,0,0,0,0,0,0,0,0,0,0,0,0,0,0,0,5,0,0,0,3,0
1274.0,0,0,0,0,0,0,0,0,0,0,0,0,0,0,0,5,0,0,0,3,0
1275.0,0,0,0,0,0,0,0,0,0,0,0,0,0,0,0,5,0,0,0,3,0
1276.0,0,0,0,0,0,0,0,0,0,0,0,0,0,0,0,4,0,0,0,3,1
1277.0,0,0,0,0,0,0,0,0,0,0,0,0,0,0,0,4,0,0,0,3,1
1278.0,0,0,0,0,0,0,0,0,0,0,0,0,0,0,0,4,0,0,1,2,1
1279.0,0,0,0,0,0,0,0,0,0,0,0,0,0,0,0,4,0,0,1,2,0
1280.0,0,0,0,0,0,0,0,0,0,0,0,0,0,0,0,5,0,0,0,2,0
1281.0,0,0,0,0,0,0,0,0,0,0,0,0,0,0,0,4,0,0,0,2,1
1282.0,0,0,0,0,0,0,0,0,0,0,0,0,0,0,0,4,0,0,1,1,1
1283.0,0,0,0,0,0,0,0,0,0,0,0,0,0,0,0,4,0,0,1,1,1
1284.0,0,0,0,0,0,0,0,0,0,0,0,0,0,0,0,4,0,0,1,1,0
1285.0,0,0,0,0,0,0,0,0,0,0,0,0,0,0,0,5,0,0,0,1,0
1286.0,0,0,0,0,0,0,0,0,0,0,0,0,0,0,0,4,0,0,0,1,1
1287.0,0,0,0,0,0,0,0,0,0,0,0,0,0,0,0,4,0,0,1,0,1
1288.0,0,0,0,0,0,0,0,0,0,0,0,0,0,0,0,4,0,0,1,0,1
1289.0,0,0,0,0,0,0,0,0,0,0,0,0,0,0,0,4,0,0,1,0,0
1290.0,0,0,0,0,0,0,0,0,0,0,0,0,0,0,0,5,0,0,0,0,0
1291.0,0,0,0,0,0,0,0,0,0,0,0,0,0,0,0,4,0,0,0,0,1
1292.0,0,0,0,0,0,0,0,0,0,0,0,0,0,0,0,4,0,0,0,0,1
1293.0,0,0,0,0,0,0,0,0,0,0,0,0,0,0,0,4,0,0,0,0,1
1294.0,0,0,0,0,0,0,0,0,0,0,0,0,0,0,0,4,0,0,0,0,0
1295.0,0,0,0,0,0,0,0,0,0,0,0,0,0,0,0,4,0,0,0,0,0
1296.0,0,0,0,0,0,0,0,0,0,0,0,0,0,0,0,3,0,0,0,0,1
1297.0,0,0,0,0,0,0,0,0,0,0,0,0,0,0,0,3,0,0,0,0,1
1298.0,0,0,0,0,0,0,0,0,0,0,0,0,0,0,0,3,0,0,0,0,1
1299.0,0,0,0,0,0,0,0,0,0,0,0,0,0,0,0,3,0,0,0,0,0
1300.0,0,0,0,0,0,0,0,0,0,0,0,0,0,0,0,3,0,0,0,0,0
1301.0,0,0,0,0,0,0,0,0,0,0,0,0,0,0,0,2,0,0,0,0,1
1302.0,0,0,0,0,0,0,0,0,0,0,0,0,0,0,0,2,0,0,0,0,1
1303.0,0,0,0,0,0,0,0,0,0,0,0,0,0,0,0,2,0,0,0,0,1
1304.0,0,0,0,0,0,0,0,0,0,0,0,0,0,0,0,2,0,0,0,0,0
1305.0,0,0,0,0,0,0,0,0,0,0,0,0,0,0,0,2,0,0,0,0,0
1306.0,0,0,0,0,0,0,0,0,0,0,0,0,0,0,0,1,0,0,0,0,1
1307.0,0,0,0,0,0,0,0,0,0,0,0,0,0,0,0,1,0,0,0,0,1
1308.0,0,0,0,0,0,0,0,0,0,0,0,0,0,0,0,1,0,0,0,0,1
1309.0,0,0,0,0,0,0,0,0,0,0,0,0,0,0,0,1,0,0,0,0,0
1310.0,0,0,0,0,0,0,0,0,0,0,0,0,0,0,0,0,0,0,0,0,1
1311.0,0,0,0,0,0,0,0,0,0,0,0,0,0,0,0,0,0,0,0,0,1
1312.0,0,0,0,0,0,0,0,0,0,0,0,0,0,0,0,0,0,0,0,0,1
1313.0,0,0,0,0,0,0,0,0,0,0,0,0,0,0,0,0,0,0,0,0,1
